"ch_1","ch_2","ch_3","ch_4","ch_5","ch_6","ch_7","ch_8","finger"
"0.070502","0.057912","0.040329","0.031192","0.025333","0.026376","0.012276","0.015245","0"
"0.086431","0.063182","0.047433","0.033985","0.028782","0.024657","0.013169","0.016782","0"
"0.061834","0.054115","0.049713","0.034192","0.031598","0.030281","0.014208","0.015601","0"
"0.067795","0.034421","0.043289","0.034695","0.024369","0.023044","0.014071","0.017349","0"
"0.040445","0.033675","0.04524","0.029572","0.027309","0.024551","0.013759","0.014993","0"
"0.046697","0.048369","0.057922","0.042329","0.032788","0.026927","0.014416","0.014733","0"
"0.054806","0.032639","0.058401","0.032731","0.025111","0.021177","0.011779","0.014857","0"
"0.06321","0.04567","0.051358","0.036436","0.029714","0.024708","0.012364","0.016244","0"
"0.060576","0.0505","0.05783","0.036094","0.026209","0.027175","0.01313","0.013975","0"
"0.071711","0.059464","0.054404","0.033805","0.027238","0.026323","0.013055","0.014744","0"
"0.06372","0.056294","0.047944","0.037897","0.024907","0.022276","0.014814","0.016854","0"
"0.078893","0.063344","0.058961","0.03971","0.024094","0.023536","0.013387","0.016544","0"
"0.068354","0.053469","0.061404","0.045803","0.023822","0.024225","0.013547","0.017426","0"
"0.084094","0.06434","0.057603","0.039444","0.027875","0.024381","0.012983","0.018868","0"
"0.074861","0.070043","0.071184","0.03849","0.030193","0.026362","0.013407","0.016302","0"
"0.068272","0.044835","0.059806","0.03323","0.0264","0.023778","0.012983","0.016975","0"
"0.051962","0.054549","0.072978","0.040906","0.0233","0.023516","0.013039","0.014426","0"
"0.04589","0.047335","0.055145","0.037842","0.030843","0.027932","0.014081","0.013968","0"
"0.03508","0.032016","0.069478","0.028932","0.028516","0.028366","0.012584","0.012022","0"
"0.048316","0.054808","0.054349","0.03995","0.030725","0.026162","0.010999","0.012013","0"
"0.042381","0.045179","0.054769","0.040145","0.03064","0.029649","0.014023","0.012824","0"
"0.056501","0.052035","0.056578","0.037858","0.026093","0.024501","0.012283","0.013129","0"
"0.045009","0.047289","0.058742","0.041559","0.026678","0.026283","0.013855","0.013577","0"
"0.055034","0.047053","0.074775","0.04273","0.025138","0.023256","0.013133","0.013798","0"
"0.059558","0.045228","0.065837","0.04167","0.023322","0.023183","0.012851","0.01573","0"
"0.058969","0.044016","0.060809","0.035062","0.02794","0.02749","0.013284","0.01373","0"
"0.05662","0.052914","0.06678","0.035854","0.028076","0.024854","0.012933","0.01434","0"
"0.057634","0.044884","0.063388","0.036777","0.026672","0.024438","0.014112","0.015121","0"
"0.055525","0.046775","0.069186","0.040492","0.027028","0.025391","0.013364","0.013649","0"
"0.068349","0.054579","0.052576","0.039956","0.032711","0.029266","0.013947","0.016112","0"
"0.054825","0.055621","0.062683","0.042195","0.031189","0.03284","0.015599","0.014808","0"
"0.055659","0.040691","0.052221","0.040565","0.025865","0.022897","0.012412","0.013032","0"
"0.080258","0.07422","0.0599","0.041241","0.034122","0.02982","0.014294","0.015325","0"
"0.050892","0.050069","0.099564","0.04384","0.033481","0.029682","0.014651","0.01411","0"
"0.067949","0.05503","0.074442","0.038388","0.032858","0.029765","0.013364","0.013489","0"
"0.061335","0.049938","0.092038","0.040789","0.030243","0.026157","0.014507","0.016645","0"
"0.062929","0.067245","0.078397","0.031895","0.031968","0.030904","0.014208","0.015518","0"
"0.084411","0.065959","0.086354","0.047182","0.039181","0.033875","0.01365","0.017159","0"
"0.067671","0.051679","0.081559","0.045148","0.037225","0.032492","0.014454","0.01735","0"
"0.07813","0.06703","0.064661","0.041111","0.028836","0.023891","0.013002","0.015524","0"
"0.069921","0.063042","0.058806","0.043782","0.038352","0.036944","0.015021","0.016468","0"
"0.061378","0.072656","0.077492","0.040299","0.032552","0.030059","0.015422","0.017412","0"
"0.077399","0.061775","0.074788","0.05267","0.032695","0.029367","0.014151","0.017908","0"
"0.044596","0.051561","0.058407","0.042956","0.032274","0.026779","0.011925","0.013254","0"
"0.037669","0.053438","0.06274","0.03902","0.036534","0.035185","0.014213","0.013568","0"
"0.059166","0.080993","0.066343","0.048251","0.039165","0.034455","0.014529","0.014783","0"
"0.056636","0.055434","0.068368","0.04946","0.033896","0.030378","0.014187","0.015538","0"
"0.044081","0.046158","0.073712","0.043295","0.030889","0.026585","0.012204","0.011974","0"
"0.054591","0.057564","0.073432","0.042786","0.037235","0.033847","0.014588","0.01469","0"
"0.068657","0.058603","0.060321","0.056138","0.03701","0.035786","0.015424","0.014776","0"
"0.044629","0.058588","0.070795","0.049856","0.035287","0.034016","0.014015","0.013146","0"
"0.058121","0.057837","0.062046","0.052622","0.035545","0.035252","0.01443","0.01739","0"
"0.061786","0.060682","0.069661","0.049255","0.030981","0.031533","0.013489","0.014199","0"
"0.019963","0.021446","0.072524","0.045707","0.02939","0.027184","0.013088","0.01164","0"
"0.019784","0.024749","0.095197","0.044024","0.047247","0.043785","0.015475","0.010438","0"
"0.028186","0.036326","0.12938","0.046506","0.050185","0.045785","0.016861","0.014649","0"
"0.030216","0.038154","0.076676","0.045915","0.035468","0.0332","0.014867","0.013653","0"
"0.031147","0.03254","0.055915","0.036618","0.032806","0.031762","0.013063","0.0093271","0"
"0.033226","0.03836","0.088849","0.03878","0.040754","0.040055","0.015959","0.012887","0"
"0.030504","0.031897","0.058061","0.038141","0.03861","0.034879","0.01439","0.013814","0"
"0.033145","0.03753","0.057648","0.035219","0.044638","0.042581","0.015238","0.014263","0"
"0.028542","0.034018","0.061304","0.035905","0.039804","0.037991","0.013345","0.011198","0"
"0.033303","0.032785","0.059466","0.036607","0.034504","0.034289","0.014733","0.013728","0"
"0.03107","0.035049","0.058762","0.039449","0.044368","0.044012","0.015681","0.014369","0"
"0.029172","0.032376","0.064227","0.037577","0.04032","0.037615","0.014227","0.012604","0"
"0.030432","0.030922","0.068068","0.035107","0.041839","0.037554","0.01452","0.012132","0"
"0.031399","0.036406","0.071922","0.040401","0.044989","0.042618","0.014593","0.012498","0"
"0.03118","0.029778","0.070727","0.040877","0.04346","0.045165","0.016634","0.012661","0"
"0.026867","0.025584","0.088124","0.039092","0.038207","0.036781","0.013628","0.011293","0"
"0.02865","0.038142","0.075749","0.045785","0.039893","0.039776","0.015056","0.012423","0"
"0.025767","0.027531","0.074151","0.034502","0.03346","0.038409","0.014543","0.011606","0"
"0.019525","0.018745","0.057788","0.029584","0.027513","0.027667","0.011663","0.01042","0"
"0.026816","0.02367","0.070374","0.03581","0.030485","0.032202","0.012835","0.011039","0"
"0.031338","0.034313","0.068102","0.042766","0.046038","0.0426","0.015003","0.013301","0"
"0.0819","0.073839","0.084832","0.053588","0.027452","0.024095","0.015497","0.019742","0"
"0.083584","0.083929","0.072904","0.06282","0.031403","0.026898","0.013","0.016049","0"
"0.088147","0.07975","0.064903","0.054958","0.033568","0.034665","0.015706","0.019969","0"
"0.056762","0.057969","0.09195","0.046413","0.031101","0.027039","0.012494","0.013343","0"
"0.062344","0.065033","0.067835","0.04573","0.031836","0.033864","0.014801","0.015685","0"
"0.076274","0.08057","0.079848","0.04561","0.031721","0.030823","0.014408","0.016625","0"
"0.06516","0.060205","0.074179","0.057138","0.033757","0.029719","0.014112","0.014616","0"
"0.058784","0.062834","0.061746","0.051229","0.034405","0.033641","0.014208","0.013868","0"
"0.061703","0.055311","0.065123","0.040122","0.027989","0.026776","0.012173","0.014703","0"
"0.073637","0.052847","0.070347","0.053972","0.038935","0.036497","0.015045","0.018277","0"
"0.085454","0.061844","0.07903","0.051205","0.031249","0.024888","0.014912","0.022227","0"
"0.065868","0.06306","0.055346","0.045081","0.03039","0.02484","0.014452","0.015477","0"
"0.056421","0.054812","0.055215","0.036607","0.029151","0.02967","0.014466","0.013191","0"
"0.088033","0.066524","0.059892","0.045241","0.035056","0.029143","0.013868","0.016527","0"
"0.06646","0.0626","0.063436","0.0465","0.025696","0.021748","0.01296","0.013479","0"
"0.02922","0.028881","0.088116","0.032784","0.02748","0.023753","0.012717","0.01158","0"
"0.050992","0.052454","0.077633","0.040321","0.026446","0.025966","0.014295","0.012782","0"
"0.032874","0.041793","0.079301","0.038213","0.02768","0.028683","0.014385","0.01286","0"
"0.032728","0.034248","0.084144","0.032433","0.035458","0.035707","0.014753","0.012435","0"
"0.032112","0.03873","0.077123","0.038947","0.035096","0.034456","0.01361","0.012612","0"
"0.03585","0.041125","0.089758","0.035334","0.031466","0.028999","0.01294","0.011755","0"
"0.048392","0.051062","0.063383","0.039877","0.029524","0.030623","0.015003","0.012824","0"
"0.029635","0.040022","0.092275","0.042871","0.03275","0.028009","0.015227","0.012135","0"
"0.031679","0.042698","0.071605","0.041279","0.032426","0.03041","0.012833","0.011353","0"
"0.047079","0.057917","0.058337","0.03838","0.032568","0.028691","0.01439","0.014754","0"
"0.023438","0.041698","0.04184","0.020375","0.031941","0.030678","0.014062","0.011248","0"
"0.022719","0.02891","0.034622","0.019173","0.029132","0.026605","0.012247","0.011486","0"
"0.019293","0.023294","0.035686","0.021683","0.030076","0.030027","0.013558","0.011316","0"
"0.026702","0.029482","0.030717","0.019352","0.028452","0.027837","0.014474","0.012924","0"
"0.026498","0.031668","0.036786","0.021202","0.028953","0.027952","0.012453","0.011551","0"
"0.026114","0.025584","0.031902","0.021199","0.025122","0.024525","0.012906","0.01091","0"
"0.021439","0.03584","0.036132","0.024123","0.032492","0.030735","0.01322","0.010996","0"
"0.025578","0.030182","0.032065","0.022435","0.033061","0.033979","0.013543","0.012101","0"
"0.025873","0.024704","0.051277","0.02592","0.029626","0.030344","0.013629","0.011822","0"
"0.021021","0.026892","0.051267","0.021248","0.03057","0.029167","0.012945","0.010698","0"
"0.021489","0.019886","0.034179","0.019724","0.02892","0.027928","0.012509","0.011091","0"
"0.021772","0.025821","0.02699","0.020408","0.034221","0.031808","0.016174","0.010375","0"
"0.020173","0.026421","0.035265","0.02627","0.038732","0.035294","0.013623","0.010671","0"
"0.021679","0.023573","0.040257","0.021884","0.030576","0.031007","0.013844","0.010674","0"
"0.024344","0.030051","0.058372","0.021258","0.029485","0.031779","0.014141","0.011294","0"
"0.022132","0.029884","0.041862","0.022585","0.030833","0.029576","0.011688","0.011629","0"
"0.020683","0.021514","0.037077","0.020024","0.030496","0.030328","0.012663","0.0099165","0"
"0.023488","0.029359","0.029971","0.017653","0.028347","0.029769","0.012333","0.01133","0"
"0.017123","0.026368","0.035406","0.019088","0.027046","0.024659","0.013347","0.010278","0"
"0.02064","0.02583","0.036175","0.020483","0.02983","0.027883","0.013024","0.010158","0"
"0.019866","0.025954","0.036869","0.020787","0.026673","0.02746","0.012154","0.010789","0"
"0.018292","0.023247","0.028577","0.019095","0.03472","0.034704","0.014156","0.011134","0"
"0.016936","0.019141","0.019024","0.020718","0.036149","0.033367","0.014569","0.01195","0"
"0.017668","0.02231","0.035144","0.020807","0.033838","0.032073","0.014681","0.011732","0"
"0.016446","0.023616","0.035508","0.019585","0.035805","0.034032","0.014473","0.010371","0"
"0.018403","0.023939","0.041206","0.025093","0.031269","0.029901","0.012258","0.01085","0"
"0.027135","0.034112","0.053045","0.028041","0.040534","0.039743","0.014666","0.013931","0"
"0.020711","0.032956","0.047588","0.02303","0.03483","0.036367","0.011653","0.010927","0"
"0.020379","0.02315","0.032557","0.017592","0.029467","0.028907","0.013119","0.011337","0"
"0.020914","0.033501","0.042019","0.019689","0.025552","0.02657","0.012553","0.010361","0"
"0.02016","0.030341","0.040322","0.020767","0.027128","0.026342","0.012664","0.010835","0"
"0.019789","0.029349","0.039257","0.020846","0.02585","0.026477","0.01157","0.010827","0"
"0.020838","0.025902","0.044374","0.025606","0.033175","0.031745","0.013202","0.011416","0"
"0.016503","0.023243","0.037224","0.021745","0.028994","0.029502","0.014213","0.0088359","0"
"0.018742","0.025868","0.037554","0.023809","0.034206","0.03246","0.012728","0.011014","0"
"0.019953","0.02851","0.039582","0.022699","0.024865","0.027888","0.01336","0.010198","0"
"0.019112","0.027456","0.040875","0.02163","0.03077","0.03192","0.013528","0.01121","0"
"0.020661","0.028578","0.039721","0.022283","0.032161","0.029921","0.013404","0.010697","0"
"0.018275","0.019032","0.03717","0.020765","0.032836","0.029524","0.011935","0.011375","0"
"0.017548","0.027213","0.044243","0.02445","0.029891","0.027066","0.011969","0.010572","0"
"0.020576","0.029132","0.041573","0.022473","0.034834","0.03362","0.012457","0.0096676","0"
"0.014988","0.022713","0.053757","0.020797","0.028079","0.02877","0.013055","0.0092477","0"
"0.01687","0.022467","0.060256","0.021245","0.026076","0.025914","0.012401","0.011124","0"
"0.018111","0.026552","0.038961","0.022685","0.035905","0.035335","0.013046","0.010545","0"
"0.014237","0.023168","0.031262","0.018512","0.032074","0.031354","0.011986","0.0095683","0"
"0.017721","0.02813","0.033687","0.020529","0.03057","0.031779","0.013529","0.011064","0"
"0.017032","0.023035","0.034167","0.019652","0.027683","0.031005","0.013212","0.01008","0"
"0.016739","0.022114","0.038374","0.021365","0.032214","0.029906","0.013376","0.0089739","0"
"0.015298","0.019668","0.03225","0.018236","0.028972","0.028686","0.012894","0.010242","0"
"0.018454","0.024006","0.035671","0.022726","0.035154","0.032702","0.014359","0.012325","0"
"0.016343","0.022029","0.039024","0.020065","0.027556","0.025876","0.011988","0.010687","0"
"0.016941","0.024898","0.040283","0.023428","0.029081","0.028931","0.011657","0.01061","0"
"0.018498","0.022928","0.04144","0.024981","0.030197","0.032106","0.012908","0.010865","0"
"0.026972","0.031147","0.042237","0.026898","0.036202","0.036559","0.014113","0.011049","0"
"0.020648","0.030823","0.043783","0.02559","0.03362","0.033193","0.014273","0.011998","0"
"0.018668","0.022547","0.044757","0.022457","0.028189","0.02867","0.012216","0.010617","0"
"0.01795","0.031246","0.052151","0.026327","0.040559","0.037387","0.01368","0.011758","0"
"0.015853","0.026097","0.050548","0.022868","0.028892","0.027833","0.012023","0.0095362","0"
"0.019498","0.025847","0.054403","0.023685","0.033908","0.03294","0.013488","0.010389","0"
"0.017394","0.02251","0.045384","0.019246","0.025878","0.026729","0.012925","0.010481","0"
"0.015052","0.025456","0.030437","0.019503","0.026798","0.027963","0.013364","0.016737","0"
"0.015236","0.021825","0.041983","0.021053","0.025242","0.022554","0.011777","0.0085052","0"
"0.013819","0.018114","0.040366","0.020161","0.024098","0.023506","0.011699","0.0091861","0"
"0.017803","0.025024","0.047666","0.022747","0.028924","0.029998","0.011355","0.010177","0"
"0.019953","0.026189","0.050842","0.024524","0.032504","0.029734","0.013133","0.01148","0"
"0.015886","0.027178","0.048329","0.020346","0.023097","0.024541","0.011362","0.0098633","0"
"0.017754","0.023694","0.054422","0.022888","0.031523","0.032467","0.013023","0.010595","0"
"0.013459","0.024313","0.044829","0.022695","0.022904","0.022114","0.0095425","0.0083464","0"
"0.01662","0.021755","0.038491","0.021724","0.030823","0.028614","0.012476","0.010639","0"
"0.016005","0.022756","0.053974","0.024736","0.032949","0.033347","0.012382","0.010147","0"
"0.018484","0.025243","0.048605","0.025371","0.027626","0.026895","0.011027","0.010411","0"
"0.019348","0.026384","0.047955","0.024217","0.027875","0.027698","0.012588","0.010297","0"
"0.019322","0.030607","0.055739","0.022946","0.032177","0.032958","0.01234","0.011156","0"
"0.01855","0.029146","0.063315","0.022752","0.025993","0.026224","0.012673","0.01036","0"
"0.015869","0.02126","0.049407","0.023999","0.026434","0.0244","0.011846","0.0094367","0"
"0.016359","0.023649","0.056792","0.027913","0.032779","0.032268","0.013324","0.010004","0"
"0.015928","0.025206","0.050108","0.026231","0.027746","0.029945","0.012439","0.010022","0"
"0.013177","0.024357","0.052258","0.021304","0.022075","0.020927","0.010212","0.0082461","0"
"0.015144","0.024997","0.059057","0.024213","0.026382","0.02694","0.011745","0.0090978","0"
"0.016353","0.023713","0.054301","0.026193","0.028481","0.027849","0.011812","0.009554","0"
"0.013991","0.024632","0.058882","0.022065","0.026266","0.023071","0.010501","0.0088863","0"
"0.014205","0.022685","0.061958","0.02658","0.026403","0.025708","0.010091","0.008707","0"
"0.015543","0.022329","0.054137","0.02584","0.028857","0.027971","0.011711","0.0095955","0"
"0.016477","0.022592","0.05302","0.023552","0.029335","0.02691","0.012402","0.0095218","0"
"0.011137","0.019626","0.041551","0.021235","0.021667","0.022349","0.010414","0.0084181","0"
"0.012043","0.019469","0.040205","0.017072","0.018146","0.015654","0.0095327","0.0083953","0"
"0.012637","0.02055","0.052766","0.020598","0.01405","0.01455","0.0086542","0.0083516","0"
"0.014073","0.018033","0.048929","0.02558","0.029191","0.028415","0.012078","0.0099427","0"
"0.018433","0.027073","0.051713","0.025835","0.030106","0.035359","0.010849","0.0093359","0"
"0.020589","0.024394","0.073653","0.032184","0.031079","0.032617","0.012224","0.0096929","0"
"0.017075","0.024708","0.074772","0.027767","0.027234","0.027688","0.012575","0.0091139","0"
"0.021061","0.039902","0.059999","0.026801","0.029761","0.028781","0.011554","0.01132","0"
"0.020313","0.02779","0.05811","0.033145","0.031769","0.029564","0.012588","0.01122","0"
"0.0232","0.035104","0.07663","0.034204","0.033012","0.033446","0.013055","0.010512","0"
"0.021895","0.030846","0.053557","0.031508","0.033542","0.031822","0.01161","0.011008","0"
"0.016466","0.025696","0.051626","0.025831","0.033568","0.034796","0.012749","0.0093932","0"
"0.017646","0.026005","0.04699","0.024532","0.024448","0.025644","0.010724","0.0095763","0"
"0.016432","0.025619","0.066937","0.024625","0.0298","0.030055","0.012696","0.011037","0"
"0.012264","0.020945","0.052512","0.022346","0.02564","0.027046","0.01138","0.0092748","0"
"0.015636","0.025131","0.057522","0.029147","0.02961","0.031226","0.012683","0.010977","0"
"0.019605","0.03321","0.078127","0.032455","0.033638","0.032442","0.011937","0.010578","0"
"0.015142","0.02445","0.059064","0.02429","0.028832","0.028314","0.012717","0.010163","0"
"0.016243","0.022008","0.053715","0.026025","0.027641","0.027102","0.010646","0.010268","0"
"0.01704","0.02433","0.060424","0.025572","0.035966","0.037594","0.013077","0.010166","0"
"0.018141","0.024416","0.070667","0.035388","0.03937","0.033033","0.01243","0.010257","0"
"0.016714","0.027437","0.066941","0.034308","0.030324","0.028682","0.012347","0.01133","0"
"0.016422","0.037268","0.060201","0.03328","0.029874","0.029983","0.012566","0.010644","0"
"0.018553","0.027073","0.067109","0.027374","0.029786","0.030348","0.011556","0.0098322","0"
"0.016427","0.031924","0.079155","0.026093","0.028171","0.027984","0.011645","0.010068","0"
"0.01988","0.029297","0.078908","0.035417","0.041684","0.039507","0.014285","0.010862","0"
"0.017575","0.030587","0.061677","0.031199","0.029998","0.0323","0.011002","0.010422","0"
"0.021906","0.046221","0.074328","0.028254","0.031814","0.030314","0.012835","0.01061","0"
"0.01462","0.059482","0.079594","0.038929","0.019096","0.010434","0.0086999","0.010494","0"
"0.017818","0.037454","0.058484","0.02825","0.013251","0.0087169","0.0093224","0.010399","0"
"0.012247","0.038097","0.030851","0.015786","0.019717","0.0098189","0.0086999","0.0091874","0"
"0.011391","0.033087","0.012004","0.010517","0.01309","0.010052","0.008401","0.0091264","0"
"0.016683","0.084688","0.035952","0.018224","0.0146","0.011037","0.0086817","0.0099593","0"
"0.012158","0.020187","0.029483","0.014682","0.016539","0.010736","0.0081611","0.010035","0"
"0.013637","0.029321","0.063267","0.023516","0.014265","0.010494","0.0082331","0.0089108","0"
"0.01367","0.019777","0.055116","0.026895","0.02048","0.011356","0.0090598","0.010411","0"
"0.011755","0.023585","0.037065","0.017287","0.018881","0.010743","0.0083521","0.0092919","0"
"0.012886","0.020841","0.030014","0.021734","0.01657","0.009724","0.0085095","0.0082792","0"
"0.011871","0.04049","0.019104","0.013709","0.013909","0.01032","0.0084362","0.0093954","0"
"0.011558","0.021017","0.033002","0.01558","0.014108","0.0094302","0.0083595","0.0092703","0"
"0.011951","0.026081","0.030886","0.01401","0.015392","0.0106","0.0085907","0.0084224","0"
"0.011007","0.043245","0.011368","0.012284","0.012941","0.011044","0.0088105","0.0093372","0"
"0.011612","0.030991","0.013236","0.012267","0.013399","0.010937","0.0081756","0.010198","0"
"0.010825","0.025381","0.014295","0.01164","0.016114","0.011332","0.0093341","0.009566","0"
"0.011582","0.033151","0.013756","0.014374","0.015643","0.0099871","0.0076126","0.0092371","0"
"0.01177","0.020595","0.027646","0.01875","0.014498","0.0096692","0.0080662","0.0092831","0"
"0.012191","0.06812","0.052576","0.020608","0.013984","0.011731","0.0094095","0.0093512","0"
"0.012548","0.032105","0.032549","0.016336","0.016426","0.0094897","0.0081301","0.0095392","0"
"0.0098213","0.017654","0.021832","0.016595","0.015115","0.0094735","0.0079872","0.0092779","0"
"0.010402","0.02076","0.016062","0.015354","0.017628","0.011119","0.0082111","0.0093797","0"
"0.012854","0.022422","0.028334","0.016353","0.015074","0.0098046","0.0077158","0.0090978","0"
"0.01301","0.030378","0.021085","0.015247","0.011017","0.010262","0.0077025","0.0093073","0"
"0.011998","0.015304","0.046481","0.016491","0.016959","0.010357","0.0078081","0.010066","0"
"0.011033","0.0099975","0.021828","0.025453","0.01601","0.0093919","0.0087302","0.0095392","0"
"0.012509","0.024465","0.025751","0.015556","0.015597","0.010097","0.0076427","0.0096784","0"
"0.013113","0.012917","0.015688","0.013098","0.018042","0.011337","0.008427","0.0098629","0"
"0.010467","0.0097358","0.042077","0.019273","0.015759","0.01062","0.0086358","0.0086067","0"
"0.031762","0.014216","0.01914","0.014273","0.015429","0.010962","0.0090303","0.0090126","0"
"0.011039","0.010594","0.034423","0.01693","0.015117","0.0094931","0.010176","0.0099152","0"
"0.013816","0.038377","0.011867","0.0095413","0.014401","0.0096642","0.0089336","0.0084754","0"
"0.011767","0.021889","0.01971","0.014663","0.017379","0.010887","0.009227","0.0089671","0"
"0.01309","0.019009","0.030762","0.013769","0.019106","0.011668","0.0093495","0.0084569","0"
"0.014828","0.017244","0.013986","0.013935","0.025111","0.018353","0.0092703","0.010355","0"
"0.011847","0.025415","0.012934","0.013267","0.022814","0.012091","0.0094384","0.0090096","0"
"0.013161","0.012387","0.013012","0.014861","0.019446","0.010915","0.0091861","0.010337","0"
"0.010783","0.03887","0.012458","0.013339","0.017046","0.011891","0.0097065","0.0099871","0"
"0.013954","0.027032","0.014557","0.017944","0.018375","0.01144","0.0080789","0.010522","0"
"0.016633","0.01046","0.012457","0.013059","0.017208","0.011428","0.0081932","0.0091356","0"
"0.012649","0.010377","0.012109","0.014394","0.024683","0.01185","0.0086358","0.0093512","0"
"0.013817","0.015815","0.013657","0.016116","0.022303","0.01196","0.0099099","0.0113","0"
"0.011294","0.01274","0.011461","0.014979","0.024259","0.012045","0.0095917","0.010351","0"
"0.014112","0.021763","0.015218","0.016809","0.023588","0.012542","0.0079461","0.010394","0"
"0.014003","0.014503","0.018279","0.016776","0.026656","0.013753","0.0088863","0.01084","0"
"0.013509","0.01292","0.012099","0.016095","0.021908","0.012538","0.0083398","0.010195","0"
"0.01314","0.014816","0.015537","0.016659","0.020857","0.010914","0.0090557","0.0098861","0"
"0.013144","0.014799","0.013315","0.013673","0.01651","0.010028","0.0092566","0.0098961","0"
"0.016403","0.019098","0.013057","0.012983","0.020036","0.010389","0.0085424","0.01016","0"
"0.015251","0.020329","0.014498","0.01708","0.023558","0.01157","0.009566","0.0092195","0"
"0.016885","0.016291","0.019569","0.020039","0.02702","0.013152","0.0096587","0.011428","0"
"0.019002","0.013997","0.035376","0.018871","0.022202","0.011664","0.010636","0.010361","0"
"0.015467","0.01415","0.01451","0.017184","0.021368","0.012033","0.0080295","0.0096936","0"
"0.017652","0.014108","0.014482","0.015723","0.027128","0.010736","0.00913","0.010644","0"
"0.015714","0.015843","0.013338","0.012684","0.025442","0.012514","0.0079061","0.01157","0"
"0.013717","0.015471","0.016758","0.017008","0.030284","0.01292","0.010501","0.011342","0"
"0.015012","0.013081","0.012546","0.016634","0.019007","0.012154","0.0078228","0.0089671","0"
"0.014704","0.012702","0.012308","0.013438","0.017497","0.0096449","0.0080137","0.0094007","0"
"0.01132","0.011392","0.021654","0.015616","0.022328","0.011612","0.009381","0.0094875","0"
"0.020335","0.014578","0.020811","0.013787","0.024662","0.011582","0.0091587","0.0098029","0"
"0.016302","0.018822","0.014864","0.014521","0.026527","0.013231","0.0093319","0.01144","0"
"0.025295","0.032415","0.01485","0.014367","0.017497","0.0107","0.0080824","0.0095111","0"
"0.015344","0.013385","0.012025","0.014189","0.022269","0.012413","0.0091098","0.010327","0"
"0.018253","0.017491","0.014599","0.015241","0.021994","0.011658","0.0098771","0.010376","0"
"0.017283","0.042332","0.014955","0.015407","0.019678","0.01045","0.0083978","0.0097765","0"
"0.012182","0.017796","0.013308","0.013812","0.029044","0.01352","0.009719","0.011101","0"
"0.01036","0.022477","0.0123","0.012362","0.021287","0.012076","0.0086527","0.009272","0"
"0.018437","0.035723","0.016425","0.017511","0.027546","0.013478","0.0090091","0.01559","0"
"0.016633","0.01939","0.014074","0.013946","0.028705","0.013474","0.0096953","0.012031","0"
"0.014614","0.021402","0.015028","0.014647","0.028301","0.013044","0.0095955","0.011258","0"
"0.012342","0.054582","0.015487","0.015525","0.019849","0.012082","0.0085902","0.010654","0"
"0.011596","0.024984","0.013755","0.012833","0.019886","0.011198","0.0099324","0.0095489","0"
"0.01843","0.019678","0.013282","0.016657","0.023102","0.010831","0.0083483","0.01131","0"
"0.017134","0.015673","0.014298","0.015318","0.02543","0.012584","0.0093728","0.010966","0"
"0.014434","0.013665","0.013327","0.014458","0.019408","0.01131","0.0099427","0.010416","0"
"0.023265","0.033647","0.012913","0.013346","0.019443","0.011615","0.0093372","0.0094064","0"
"0.011271","0.032869","0.012362","0.011362","0.017154","0.0106","0.0080789","0.0084263","0"
"0.016074","0.033942","0.012182","0.013117","0.016599","0.010763","0.0078387","0.0096824","0"
"0.011243","0.013872","0.059182","0.02622","0.010951","0.0094512","0.0090326","0.0085532","0"
"0.12669","0.18877","0.15862","0.036674","0.025535","0.043121","0.060183","0.04972","0"
"0.068575","0.065793","0.12263","0.036284","0.025467","0.024657","0.013612","0.016014","0"
"0.019267","0.075937","0.073096","0.027143","0.027198","0.026861","0.014745","0.011561","0"
"0.02746","0.062979","0.080119","0.03171","0.027759","0.028049","0.013695","0.012045","0"
"0.027405","0.081747","0.1148","0.032156","0.026323","0.024272","0.014015","0.01264","0"
"0.025438","0.044702","0.097047","0.03266","0.023703","0.020647","0.011022","0.010953","0"
"0.073955","0.080245","0.04345","0.029335","0.022886","0.023682","0.015338","0.01695","0"
"0.025296","0.071161","0.099244","0.030229","0.029997","0.029902","0.014337","0.012531","0"
"0.023329","0.053759","0.086433","0.0311","0.029568","0.026432","0.013779","0.012764","0"
"0.036291","0.046161","0.071355","0.032405","0.026287","0.023381","0.012501","0.011516","0"
"0.022946","0.049071","0.11204","0.02601","0.01991","0.0214","0.01191","0.010337","0"
"0.021011","0.038455","0.070649","0.028128","0.025683","0.026376","0.013713","0.011424","0"
"0.026715","0.038189","0.053018","0.027867","0.030744","0.027986","0.013276","0.012351","0"
"0.021333","0.045976","0.081381","0.02393","0.025214","0.026792","0.012715","0.012081","0"
"0.023512","0.043894","0.047618","0.025138","0.027891","0.027138","0.013113","0.012163","0"
"0.029226","0.066454","0.070986","0.028765","0.018968","0.021105","0.011137","0.011113","0"
"0.055117","0.068266","0.039","0.030323","0.024783","0.024673","0.013208","0.014853","0"
"0.049328","0.0522","0.049162","0.025404","0.02951","0.028934","0.013528","0.013575","0"
"0.032249","0.058649","0.047247","0.025523","0.031246","0.031581","0.014718","0.013126","0"
"0.027528","0.060322","0.053972","0.027952","0.034899","0.037156","0.016385","0.012955","0"
"0.02066","0.050648","0.06591","0.024781","0.029025","0.028881","0.013533","0.010951","0"
"0.021478","0.038441","0.063522","0.027911","0.027404","0.028354","0.014265","0.010948","0"
"0.01789","0.04571","0.063622","0.023196","0.026592","0.029534","0.014089","0.012057","0"
"0.013954","0.026357","0.053511","0.026046","0.02075","0.01797","0.01097","0.010454","0"
"0.013881","0.021979","0.059697","0.024311","0.019756","0.021758","0.011073","0.010114","0"
"0.015743","0.023601","0.05171","0.027336","0.030346","0.032426","0.014864","0.011602","0"
"0.014745","0.028713","0.045873","0.028994","0.028821","0.029971","0.013525","0.010318","0"
"0.016925","0.042158","0.045109","0.024972","0.024082","0.025333","0.011908","0.011473","0"
"0.018248","0.042475","0.055551","0.02498","0.027044","0.026623","0.013365","0.011228","0"
"0.016126","0.042177","0.047851","0.029379","0.0286","0.027631","0.014773","0.010202","0"
"0.017679","0.035552","0.052619","0.028254","0.02615","0.026658","0.012458","0.010799","0"
"0.019739","0.041963","0.044775","0.024835","0.025357","0.023598","0.012796","0.011862","0"
"0.017048","0.042899","0.055132","0.027683","0.021759","0.02106","0.011481","0.011547","0"
"0.022114","0.043445","0.065685","0.029427","0.025846","0.023903","0.013284","0.011769","0"
"0.019818","0.032985","0.05771","0.034451","0.031471","0.031981","0.013676","0.011594","0"
"0.0218","0.052274","0.074015","0.03903","0.037348","0.038964","0.016037","0.01379","0"
"0.019295","0.039366","0.072821","0.035425","0.028658","0.028625","0.014089","0.012158","0"
"0.017177","0.027303","0.058755","0.030597","0.031314","0.030111","0.014915","0.012584","0"
"0.017605","0.02861","0.056232","0.025576","0.02421","0.020527","0.01085","0.010694","0"
"0.016294","0.037423","0.062838","0.031555","0.022467","0.022253","0.01209","0.010823","0"
"0.018578","0.036251","0.056668","0.031406","0.022728","0.026041","0.014557","0.012191","0"
"0.019928","0.042519","0.06989","0.028761","0.024306","0.02466","0.013521","0.011309","0"
"0.021103","0.030476","0.058698","0.030814","0.031466","0.033082","0.015248","0.012765","0"
"0.017738","0.035163","0.087144","0.029612","0.029819","0.030063","0.021125","0.020728","0"
"0.016495","0.045222","0.062577","0.027123","0.025564","0.025624","0.012141","0.011197","0"
"0.019652","0.049929","0.056062","0.032071","0.035888","0.035122","0.015701","0.013488","0"
"0.017504","0.05909","0.07225","0.028025","0.023662","0.024391","0.013868","0.012002","0"
"0.014901","0.037983","0.042038","0.027166","0.026375","0.025262","0.012712","0.013231","0"
"0.014816","0.029909","0.064795","0.028465","0.033559","0.035829","0.014458","0.010981","0"
"0.016202","0.029997","0.050267","0.029579","0.030512","0.029624","0.014003","0.012115","0"
"0.016559","0.018502","0.054245","0.034888","0.027608","0.029477","0.012547","0.011239","0"
"0.015947","0.029899","0.06055","0.02692","0.025692","0.026407","0.013598","0.012115","0"
"0.016785","0.040652","0.062452","0.030614","0.030875","0.032784","0.014256","0.012591","0"
"0.018239","0.033861","0.076726","0.028423","0.027672","0.028667","0.014179","0.012696","0"
"0.017976","0.037474","0.065711","0.030211","0.035972","0.034347","0.014408","0.012892","0"
"0.022308","0.037809","0.055417","0.031585","0.028864","0.025635","0.012522","0.012686","0"
"0.021724","0.027747","0.045929","0.027322","0.026544","0.023333","0.012937","0.012099","0"
"0.015782","0.045787","0.063595","0.028036","0.030705","0.033207","0.01396","0.010812","0"
"0.01394","0.035298","0.051421","0.033195","0.045578","0.030459","0.013426","0.011127","0"
"0.013595","0.027379","0.043416","0.022807","0.021455","0.019945","0.011804","0.011404","0"
"0.014113","0.030031","0.047618","0.025281","0.017193","0.01809","0.011545","0.011184","0"
"0.013486","0.026003","0.053996","0.026027","0.025086","0.025831","0.013565","0.01211","0"
"0.012855","0.030056","0.055882","0.026462","0.022413","0.021786","0.011616","0.01019","0"
"0.010773","0.025642","0.051072","0.022017","0.020162","0.019874","0.010323","0.010468","0"
"0.010572","0.028768","0.046256","0.020519","0.011997","0.013354","0.0096953","0.010015","0"
"0.015028","0.028618","0.042792","0.025556","0.023358","0.022387","0.01234","0.011416","0"
"0.016489","0.036002","0.049804","0.025455","0.029704","0.030765","0.014557","0.012832","0"
"0.011976","0.019503","0.043429","0.02816","0.024678","0.025999","0.012828","0.010592","0"
"0.0309","0.037058","0.04408","0.027172","0.020487","0.02086","0.011523","0.011258","0"
"0.022002","0.033784","0.055075","0.027568","0.022017","0.023401","0.012572","0.011305","0"
"0.020096","0.037503","0.044999","0.027605","0.024803","0.025591","0.012714","0.012307","0"
"0.02161","0.030657","0.044148","0.028672","0.02544","0.023405","0.013305","0.0134","0"
"0.021876","0.032569","0.050114","0.030521","0.020923","0.020076","0.010636","0.011557","0"
"0.026353","0.034453","0.04941","0.027736","0.023977","0.022806","0.012964","0.011201","0"
"0.020856","0.026796","0.049217","0.027908","0.025217","0.02319","0.012291","0.012062","0"
"0.021906","0.036071","0.045679","0.025874","0.029412","0.030087","0.01469","0.012317","0"
"0.025703","0.029666","0.046594","0.026181","0.024567","0.024","0.011965","0.012621","0"
"0.02604","0.030849","0.058024","0.025803","0.021626","0.019803","0.011862","0.012191","0"
"0.018829","0.029199","0.047848","0.024606","0.023216","0.023111","0.01293","0.011104","0"
"0.024462","0.038307","0.048744","0.028352","0.025534","0.024795","0.012635","0.011841","0"
"0.030247","0.036556","0.054283","0.028942","0.03082","0.032705","0.013777","0.013739","0"
"0.038616","0.043168","0.053611","0.025801","0.023692","0.022688","0.012406","0.013829","0"
"0.04329","0.046128","0.053086","0.031216","0.022762","0.022944","0.013525","0.013737","0"
"0.024595","0.035823","0.044112","0.028618","0.025798","0.026781","0.014034","0.012973","0"
"0.016028","0.030022","0.051077","0.028087","0.019164","0.021346","0.012727","0.011527","0"
"0.016763","0.028625","0.047148","0.027524","0.025302","0.022964","0.01294","0.012523","0"
"0.018322","0.029948","0.046378","0.025767","0.025965","0.029387","0.013519","0.012241","0"
"0.018314","0.03596","0.067138","0.033274","0.035461","0.035163","0.016057","0.014649","0"
"0.023651","0.053599","0.045665","0.027696","0.02409","0.02659","0.014193","0.012544","0"
"0.02007","0.033452","0.054477","0.032227","0.030056","0.032096","0.015601","0.013476","0"
"0.020514","0.042832","0.048312","0.027504","0.024696","0.028814","0.013315","0.012249","0"
"0.021132","0.033626","0.049993","0.024774","0.030734","0.033799","0.014683","0.01313","0"
"0.022525","0.051077","0.05601","0.030284","0.034089","0.035284","0.016724","0.013842","0"
"0.018938","0.03631","0.060928","0.02958","0.025413","0.027319","0.014015","0.012649","0"
"0.023912","0.028105","0.047518","0.028104","0.033438","0.030837","0.015935","0.013972","0"
"0.021874","0.058976","0.069164","0.027309","0.024835","0.026442","0.013876","0.014352","0"
"0.024739","0.0482","0.053722","0.029654","0.024002","0.023511","0.0136","0.012734","0"
"0.028614","0.0438","0.047136","0.027104","0.032855","0.028297","0.014031","0.01359","0"
"0.021755","0.029294","0.05057","0.031542","0.024303","0.024237","0.013373","0.012446","0"
"0.014454","0.03029","0.048029","0.024511","0.022332","0.022884","0.012644","0.0124","0"
"0.020098","0.030342","0.056414","0.033743","0.030516","0.028796","0.016485","0.013757","0"
"0.021817","0.052305","0.073005","0.028374","0.030212","0.031193","0.01631","0.014164","0"
"0.020009","0.035001","0.033758","0.023177","0.03467","0.038377","0.015485","0.014151","0"
"0.019596","0.034233","0.034686","0.020826","0.033721","0.039268","0.017042","0.014864","0"
"0.019694","0.040432","0.051428","0.019024","0.036421","0.042409","0.017717","0.0141","0"
"0.017127","0.036275","0.041396","0.024011","0.038047","0.048381","0.018397","0.014699","0"
"0.014682","0.032236","0.032552","0.020649","0.032191","0.041006","0.017091","0.013513","0"
"0.016509","0.028334","0.03093","0.018659","0.033166","0.041243","0.017708","0.014338","0"
"0.016837","0.022739","0.02889","0.01752","0.026411","0.032067","0.01486","0.014031","0"
"0.013259","0.023616","0.046881","0.018871","0.030377","0.039614","0.016736","0.014229","0"
"0.014671","0.021798","0.03001","0.019966","0.035813","0.044865","0.01759","0.0147","0"
"0.015592","0.021905","0.051338","0.019792","0.036204","0.045094","0.01821","0.014051","0"
"0.020562","0.028267","0.043004","0.021321","0.039985","0.050275","0.018871","0.016231","0"
"0.013598","0.018138","0.028977","0.015288","0.028388","0.034053","0.015218","0.014291","0"
"0.014732","0.019467","0.028355","0.017096","0.031718","0.03822","0.016768","0.013984","0"
"0.013364","0.015768","0.028942","0.015576","0.026478","0.033008","0.015792","0.013968","0"
"0.015076","0.018267","0.04468","0.017836","0.034879","0.040553","0.017421","0.016435","0"
"0.014265","0.020964","0.029221","0.014631","0.024517","0.029797","0.015003","0.01476","0"
"0.01469","0.023351","0.032799","0.016509","0.0288","0.033115","0.016142","0.01513","0"
"0.012585","0.019058","0.029686","0.015012","0.024078","0.029881","0.014663","0.014408","0"
"0.014179","0.021444","0.032192","0.015035","0.0267","0.029755","0.01456","0.014628","0"
"0.012718","0.014017","0.030191","0.013799","0.023926","0.02868","0.015348","0.014753","0"
"0.012031","0.012758","0.030882","0.011826","0.019352","0.024165","0.01467","0.01469","0"
"0.01415","0.016416","0.033229","0.013931","0.020693","0.02613","0.014545","0.014936","0"
"0.013581","0.02048","0.042663","0.015392","0.02628","0.033269","0.014662","0.014767","0"
"0.012067","0.020461","0.030989","0.01469","0.023127","0.032639","0.014957","0.014388","0"
"0.014967","0.020716","0.044096","0.016626","0.029162","0.032871","0.016386","0.015583","0"
"0.014216","0.019427","0.073531","0.017907","0.030656","0.035932","0.016158","0.01468","0"
"0.016032","0.023274","0.059735","0.017166","0.031694","0.03972","0.017511","0.01646","0"
"0.016879","0.024584","0.046332","0.017998","0.030686","0.038576","0.017118","0.015504","0"
"0.014352","0.023884","0.057746","0.016961","0.029789","0.033767","0.016224","0.015196","0"
"0.013063","0.017847","0.044395","0.013962","0.02488","0.031418","0.016061","0.015245","0"
"0.015369","0.024866","0.03498","0.015211","0.025067","0.033751","0.016445","0.015291","0"
"0.0124","0.017239","0.041221","0.012683","0.024077","0.030067","0.015311","0.015235","0"
"0.015667","0.018791","0.033563","0.018962","0.032799","0.038953","0.01689","0.015498","0"
"0.014434","0.021537","0.036227","0.013968","0.024219","0.031542","0.015412","0.016151","0"
"0.020635","0.025293","0.054753","0.018812","0.034761","0.041628","0.017623","0.016524","0"
"0.014051","0.021689","0.042687","0.015291","0.029096","0.033965","0.01619","0.015883","0"
"0.015003","0.023471","0.041877","0.018178","0.033234","0.039819","0.016667","0.015815","0"
"0.013671","0.016995","0.041765","0.013863","0.02327","0.030344","0.015915","0.014806","0"
"0.013729","0.022895","0.060773","0.016616","0.027871","0.034412","0.015687","0.015157","0"
"0.013629","0.019924","0.049241","0.015986","0.025887","0.031054","0.016176","0.015425","0"
"0.015669","0.024894","0.050419","0.017777","0.030419","0.037002","0.01613","0.015873","0"
"0.014513","0.020489","0.054451","0.014975","0.024078","0.031724","0.016163","0.01599","0"
"0.014187","0.01942","0.033232","0.016421","0.027761","0.0347","0.015885","0.01578","0"
"0.014875","0.024401","0.048969","0.016082","0.028576","0.036537","0.017341","0.015548","0"
"0.013075","0.023649","0.033107","0.014051","0.023622","0.029689","0.016311","0.015051","0"
"0.012441","0.013036","0.034573","0.013428","0.0193","0.024529","0.01469","0.015995","0"
"0.012828","0.018864","0.035336","0.012077","0.021046","0.026139","0.014583","0.016302","0"
"0.014416","0.028782","0.048765","0.015481","0.030574","0.036267","0.01739","0.015877","0"
"0.017418","0.021601","0.046813","0.01793","0.031369","0.035861","0.018315","0.016315","0"
"0.01521","0.021644","0.033795","0.013468","0.023599","0.02859","0.015998","0.015165","0"
"0.016255","0.026167","0.036668","0.019287","0.033347","0.038461","0.017208","0.016328","0"
"0.015072","0.022166","0.034673","0.01511","0.02484","0.031098","0.017357","0.016609","0"
"0.015851","0.027951","0.052091","0.019067","0.035233","0.043513","0.018807","0.015878","0"
"0.016163","0.020857","0.035694","0.016752","0.029295","0.034109","0.018909","0.016739","0"
"0.015754","0.023692","0.039515","0.017285","0.029718","0.037534","0.018451","0.0163","0"
"0.014766","0.018526","0.037631","0.016169","0.026397","0.032837","0.016346","0.016923","0"
"0.015024","0.023384","0.036164","0.016725","0.028475","0.035189","0.01704","0.016546","0"
"0.015069","0.031675","0.039852","0.018291","0.032096","0.040488","0.017126","0.017006","0"
"0.018618","0.034938","0.039625","0.014151","0.024641","0.030566","0.016979","0.016475","0"
"0.017066","0.031746","0.037991","0.015257","0.027981","0.034224","0.017088","0.01742","0"
"0.019863","0.032119","0.059612","0.019791","0.037257","0.045602","0.018618","0.017809","0"
"0.019773","0.026917","0.04837","0.018958","0.032846","0.041424","0.018591","0.017884","0"
"0.015861","0.027222","0.04735","0.017624","0.031939","0.039285","0.016618","0.017088","0"
"0.019268","0.032675","0.059832","0.017595","0.030701","0.037266","0.019839","0.018232","0"
"0.019171","0.029557","0.043669","0.019331","0.032329","0.039289","0.019002","0.017367","0"
"0.017898","0.033504","0.052183","0.015513","0.028242","0.032909","0.017899","0.017109","0"
"0.017744","0.030794","0.064765","0.017409","0.029944","0.035023","0.017495","0.017116","0"
"0.018021","0.024469","0.056567","0.01678","0.031094","0.040138","0.018111","0.018139","0"
"0.0156","0.017267","0.058914","0.013041","0.019788","0.025501","0.015977","0.016527","0"
"0.015311","0.023417","0.061934","0.016328","0.027266","0.034125","0.017443","0.016892","0"
"0.016143","0.027698","0.056895","0.015192","0.027914","0.032173","0.016749","0.017918","0"
"0.018454","0.031219","0.05784","0.018871","0.032096","0.041653","0.018844","0.018047","0"
"0.015354","0.020463","0.059864","0.019075","0.032904","0.03703","0.018356","0.016676","0"
"0.017332","0.020767","0.071366","0.017413","0.029963","0.033708","0.017467","0.017255","0"
"0.019488","0.037407","0.063513","0.019659","0.033342","0.042386","0.020535","0.018329","0"
"0.014158","0.024774","0.047139","0.015896","0.027189","0.034158","0.016443","0.016916","0"
"0.020924","0.030039","0.038898","0.015039","0.028683","0.036211","0.018167","0.018148","0"
"0.029188","0.029035","0.055192","0.017297","0.025977","0.031548","0.016743","0.018087","0"
"0.019031","0.03199","0.07111","0.020258","0.036121","0.044908","0.018946","0.01869","0"
"0.020101","0.027973","0.07484","0.019527","0.032862","0.040765","0.018797","0.018135","0"
"0.018778","0.024558","0.059464","0.021853","0.04145","0.048144","0.021203","0.018127","0"
"0.014547","0.023519","0.048604","0.015696","0.027731","0.033822","0.017706","0.017205","0"
"0.015264","0.019731","0.04175","0.017032","0.028025","0.034655","0.016509","0.017056","0"
"0.017308","0.027094","0.066912","0.017071","0.030454","0.036745","0.018223","0.017568","0"
"0.018331","0.025477","0.070255","0.020723","0.035027","0.043239","0.019972","0.017263","0"
"0.015929","0.029682","0.053445","0.015789","0.026219","0.035104","0.01715","0.017262","0"
"0.016317","0.026518","0.038919","0.016347","0.028648","0.036716","0.017846","0.016983","0"
"0.014497","0.020722","0.047504","0.01538","0.027241","0.03354","0.017716","0.0167","0"
"0.016311","0.017775","0.038017","0.018257","0.030033","0.034531","0.016833","0.017136","0"
"0.013201","0.016481","0.073962","0.012996","0.018972","0.022896","0.015648","0.016502","0"
"0.019884","0.030198","0.05611","0.019749","0.033095","0.038229","0.018218","0.017231","0"
"0.016879","0.023976","0.061567","0.016778","0.029473","0.034943","0.016665","0.017133","0"
"0.01574","0.029248","0.080569","0.01826","0.030299","0.037894","0.018663","0.017993","0"
"0.015001","0.023655","0.038443","0.015849","0.027646","0.033951","0.017282","0.016492","0"
"0.017638","0.027214","0.068964","0.020414","0.03571","0.040587","0.018277","0.017325","0"
"0.015531","0.026588","0.054903","0.018632","0.030499","0.033009","0.016395","0.016804","0"
"0.014447","0.02388","0.040742","0.01587","0.026222","0.031736","0.015852","0.016126","0"
"0.013787","0.020278","0.067809","0.017289","0.028557","0.030364","0.015556","0.016084","0"
"0.011978","0.017367","0.037228","0.012435","0.021087","0.023864","0.015083","0.015289","0"
"0.01559","0.027598","0.054837","0.016626","0.027605","0.032156","0.016675","0.016132","0"
"0.016109","0.019279","0.06289","0.017136","0.028342","0.032061","0.016072","0.016772","0"
"0.017148","0.031782","0.05577","0.015418","0.023695","0.031831","0.017085","0.015747","0"
"0.014409","0.026972","0.064346","0.016459","0.030932","0.031929","0.017033","0.015966","0"
"0.016067","0.019932","0.043699","0.017135","0.02395","0.031446","0.016049","0.015175","0"
"0.015771","0.07418","0.081108","0.030635","0.012631","0.0097065","0.011629","0.010644","0"
"0.052101","0.12441","0.19155","0.043181","0.028192","0.019085","0.019408","0.041489","0"
"0.042596","0.13472","0.19051","0.04554","0.022337","0.017798","0.014077","0.024668","0"
"0.062566","0.12446","0.23599","0.046925","0.022505","0.018446","0.01818","0.023157","1"
"0.029437","0.051465","0.089432","0.016893","0.014127","0.017735","0.019645","0.014079","1"
"0.03506","0.025699","0.025286","0.020039","0.012505","0.016996","0.017674","0.014974","1"
"0.043982","0.033187","0.071985","0.0189","0.016712","0.025793","0.025291","0.020268","1"
"0.032677","0.031038","0.033345","0.020213","0.01629","0.028113","0.027834","0.019944","1"
"0.032101","0.02958","0.035939","0.037279","0.014564","0.022579","0.018042","0.015792","1"
"0.034332","0.029158","0.027977","0.025456","0.01508","0.02367","0.025631","0.018851","1"
"0.039009","0.042475","0.032714","0.026807","0.014755","0.019687","0.020731","0.016432","1"
"0.031101","0.032603","0.022226","0.020767","0.013527","0.017255","0.019091","0.01416","1"
"0.046904","0.03827","0.027714","0.027727","0.012447","0.014541","0.015139","0.014557","1"
"0.029022","0.029154","0.024793","0.023246","0.013331","0.019399","0.021203","0.018622","1"
"0.028837","0.027524","0.03138","0.020915","0.012662","0.018089","0.020619","0.01586","1"
"0.046465","0.035234","0.028855","0.019108","0.013875","0.020708","0.02249","0.017246","1"
"0.024235","0.030182","0.030743","0.021794","0.01287","0.018669","0.020193","0.015566","1"
"0.036043","0.031661","0.021603","0.019038","0.014558","0.017428","0.015052","0.013499","1"
"0.029738","0.022757","0.026209","0.022096","0.012444","0.017022","0.014083","0.011533","1"
"0.030071","0.018814","0.031242","0.020496","0.01238","0.017205","0.014985","0.012291","1"
"0.039845","0.032197","0.038033","0.021931","0.011747","0.013559","0.012369","0.012717","1"
"0.041392","0.033608","0.023296","0.022166","0.016636","0.029616","0.031216","0.019791","1"
"0.042054","0.03777","0.026108","0.021216","0.013731","0.016626","0.017077","0.015422","1"
"0.050004","0.036163","0.033839","0.023597","0.014904","0.022532","0.021201","0.018959","1"
"0.045008","0.029841","0.025009","0.019088","0.012869","0.014229","0.015795","0.015852","1"
"0.033728","0.036944","0.038432","0.022947","0.014698","0.023874","0.026682","0.017792","1"
"0.038455","0.032977","0.030827","0.022536","0.012155","0.01509","0.014151","0.012522","1"
"0.033137","0.025822","0.028256","0.020029","0.011885","0.015859","0.016296","0.015452","1"
"0.031685","0.032438","0.054003","0.03224","0.013104","0.018095","0.016983","0.014168","1"
"0.054959","0.042529","0.039317","0.027844","0.014933","0.01805","0.017349","0.015298","1"
"0.033701","0.025253","0.030177","0.023225","0.011361","0.016956","0.015912","0.013578","1"
"0.039177","0.028287","0.027579","0.022457","0.012527","0.013684","0.013521","0.011746","1"
"0.027171","0.030549","0.040917","0.030954","0.015008","0.021611","0.01617","0.012822","1"
"0.043184","0.044979","0.046185","0.022775","0.012175","0.019924","0.022977","0.016486","1"
"0.03504","0.028479","0.030301","0.023248","0.014466","0.024854","0.023817","0.016018","1"
"0.034829","0.032201","0.047596","0.03428","0.015715","0.023287","0.023918","0.01766","1"
"0.054572","0.074165","0.04699","0.027169","0.01293","0.020217","0.019216","0.018965","1"
"0.036885","0.033599","0.034369","0.019907","0.012533","0.015811","0.016289","0.012468","1"
"0.044043","0.043481","0.046839","0.026306","0.012732","0.015868","0.016585","0.013767","1"
"0.045326","0.040938","0.039032","0.024219","0.015609","0.016847","0.016132","0.01516","1"
"0.045106","0.037299","0.049656","0.027264","0.013354","0.015428","0.0151","0.014864","1"
"0.03684","0.032445","0.042882","0.023013","0.014964","0.025858","0.02856","0.021177","1"
"0.035979","0.033594","0.050048","0.02573","0.012417","0.013161","0.016542","0.014966","1"
"0.037815","0.033672","0.046072","0.021475","0.014238","0.021844","0.019592","0.01715","1"
"0.043636","0.045342","0.04818","0.029124","0.015143","0.021882","0.02445","0.022515","1"
"0.038355","0.033599","0.046619","0.026432","0.013801","0.021863","0.02204","0.018387","1"
"0.042493","0.036325","0.046117","0.026636","0.014746","0.022521","0.022726","0.019977","1"
"0.040447","0.037429","0.042877","0.043793","0.014273","0.019503","0.020273","0.016117","1"
"0.039028","0.029582","0.040782","0.023086","0.011958","0.015107","0.015592","0.013395","1"
"0.031668","0.02786","0.040633","0.021406","0.012209","0.012737","0.013371","0.011804","1"
"0.033477","0.035817","0.044163","0.028797","0.015555","0.020969","0.023078","0.019497","1"
"0.044329","0.041216","0.056356","0.024309","0.0129","0.021119","0.021501","0.018544","1"
"0.028875","0.024157","0.036866","0.023183","0.011901","0.014871","0.015733","0.013014","1"
"0.036978","0.032444","0.059591","0.027683","0.012548","0.016626","0.014864","0.013284","1"
"0.037422","0.033488","0.051434","0.019631","0.012457","0.018985","0.019921","0.015256","1"
"0.049526","0.044244","0.057778","0.023446","0.014061","0.016056","0.015511","0.013783","1"
"0.040608","0.043926","0.047154","0.025592","0.01469","0.022049","0.020227","0.014698","1"
"0.031215","0.02684","0.039159","0.020156","0.011473","0.013138","0.015973","0.011662","1"
"0.038937","0.038805","0.039691","0.02755","0.013077","0.020727","0.021376","0.015456","1"
"0.048068","0.036895","0.062501","0.030225","0.013228","0.013513","0.014926","0.014015","1"
"0.04381","0.044363","0.043668","0.024636","0.011547","0.019821","0.019611","0.012031","1"
"0.045845","0.037327","0.053732","0.025305","0.012878","0.014818","0.013828","0.014938","1"
"0.037781","0.041775","0.04594","0.029836","0.016327","0.017545","0.016946","0.013659","1"
"0.054243","0.036098","0.051468","0.026465","0.01335","0.020751","0.019286","0.016673","1"
"0.038473","0.043643","0.071107","0.031943","0.012816","0.017254","0.01847","0.01587","1"
"0.040446","0.045248","0.064604","0.027105","0.014871","0.021453","0.026372","0.017088","1"
"0.046791","0.037499","0.0429","0.028431","0.012773","0.019652","0.02076","0.022436","1"
"0.029321","0.03672","0.037747","0.022081","0.014368","0.020376","0.022091","0.015889","1"
"0.043152","0.044916","0.0377","0.023638","0.013807","0.017112","0.016655","0.016341","1"
"0.028509","0.033923","0.046292","0.020792","0.013976","0.019942","0.02168","0.014765","1"
"0.047836","0.053005","0.031964","0.02398","0.01362","0.021958","0.022477","0.019863","1"
"0.037525","0.044992","0.054315","0.02274","0.011885","0.018454","0.019137","0.014525","1"
"0.039034","0.03587","0.049882","0.024985","0.014407","0.016941","0.018873","0.013655","1"
"0.04684","0.038872","0.071796","0.022454","0.012843","0.019188","0.021221","0.014937","1"
"0.037959","0.035266","0.05193","0.024011","0.012733","0.017086","0.016139","0.013415","1"
"0.036816","0.041378","0.04427","0.026825","0.013671","0.019453","0.021521","0.015688","1"
"0.044545","0.05573","0.052039","0.025343","0.014753","0.021389","0.020875","0.017246","1"
"0.035569","0.040797","0.045138","0.023597","0.014338","0.014069","0.016501","0.013237","1"
"0.041411","0.055221","0.049197","0.028384","0.013469","0.015896","0.017538","0.014994","1"
"0.029421","0.042731","0.056455","0.026177","0.01494","0.026634","0.022245","0.015789","1"
"0.036889","0.048584","0.061993","0.024203","0.011602","0.019635","0.017056","0.012908","1"
"0.046262","0.050285","0.051976","0.030049","0.012594","0.014619","0.017246","0.01469","1"
"0.053252","0.058442","0.050242","0.028751","0.014395","0.019008","0.019437","0.018824","1"
"0.045737","0.050537","0.099149","0.026353","0.015235","0.023466","0.023776","0.017198","1"
"0.039006","0.042851","0.052344","0.025093","0.013575","0.018116","0.01928","0.015369","1"
"0.035025","0.067522","0.046406","0.02474","0.015162","0.020319","0.021017","0.015112","1"
"0.043337","0.059233","0.046895","0.036838","0.01292","0.015384","0.017015","0.012803","1"
"0.040255","0.05551","0.046913","0.030664","0.016571","0.023741","0.023459","0.01852","1"
"0.044822","0.052859","0.045267","0.026087","0.015183","0.018209","0.021365","0.01596","1"
"0.055349","0.051985","0.052438","0.026698","0.012621","0.014899","0.017046","0.017542","1"
"0.038234","0.029259","0.042268","0.02952","0.012436","0.016024","0.01632","0.012078","1"
"0.040855","0.045461","0.048732","0.027077","0.014849","0.017119","0.016968","0.014341","1"
"0.037475","0.065111","0.049174","0.023524","0.016503","0.025904","0.025313","0.015946","1"
"0.044163","0.062354","0.051787","0.030696","0.013892","0.018966","0.026051","0.020044","1"
"0.044735","0.13463","0.055572","0.031378","0.016321","0.020306","0.021005","0.019691","1"
"0.048617","0.085796","0.046901","0.025106","0.012759","0.016782","0.017357","0.013559","1"
"0.052696","0.043779","0.052006","0.025826","0.015072","0.019103","0.022954","0.01791","1"
"0.039932","0.038717","0.04221","0.027691","0.013446","0.019088","0.016731","0.012565","1"
"0.038718","0.037074","0.038647","0.027943","0.012831","0.01528","0.014651","0.012468","1"
"0.080254","0.059573","0.041817","0.023649","0.016613","0.021993","0.019246","0.017996","1"
"0.068492","0.038745","0.027951","0.017839","0.01207","0.020176","0.017614","0.016583","1"
"0.037508","0.026044","0.030078","0.017729","0.015164","0.027199","0.027836","0.021556","1"
"0.046233","0.035977","0.028566","0.020458","0.014904","0.022648","0.022724","0.018887","1"
"0.05298","0.028343","0.033029","0.018333","0.01405","0.02093","0.019419","0.016177","1"
"0.02347","0.025065","0.025048","0.019309","0.015183","0.021941","0.018617","0.01617","1"
"0.044737","0.027531","0.024762","0.016117","0.014694","0.021567","0.017731","0.016527","1"
"0.056434","0.036669","0.036859","0.017777","0.014187","0.019865","0.018654","0.018298","1"
"0.046759","0.034932","0.035057","0.01725","0.01352","0.021197","0.019331","0.015192","1"
"0.037553","0.031983","0.039","0.018253","0.013806","0.016858","0.018433","0.013565","1"
"0.041357","0.026619","0.038978","0.02234","0.013836","0.017538","0.018337","0.014083","1"
"0.041532","0.029355","0.034209","0.0189","0.012932","0.022222","0.024654","0.01631","1"
"0.039102","0.03151","0.040085","0.017279","0.012596","0.021607","0.021403","0.014912","1"
"0.053968","0.038804","0.045199","0.016453","0.015304","0.017979","0.018362","0.014559","1"
"0.03933","0.026275","0.039484","0.021961","0.014327","0.022071","0.023655","0.016507","1"
"0.058374","0.035227","0.037663","0.01921","0.011924","0.018298","0.01865","0.014587","1"
"0.04326","0.03229","0.046919","0.024282","0.01111","0.017283","0.017016","0.013233","1"
"0.050671","0.033874","0.05225","0.028065","0.014555","0.017767","0.018482","0.016343","1"
"0.047175","0.035443","0.057736","0.025379","0.014027","0.015463","0.015799","0.014936","1"
"0.048375","0.033521","0.048836","0.025095","0.012153","0.01687","0.018496","0.012973","1"
"0.039624","0.027333","0.070819","0.02582","0.011544","0.015037","0.017615","0.013387","1"
"0.046762","0.031252","0.060959","0.026209","0.012546","0.021875","0.021925","0.016691","1"
"0.049073","0.03354","0.047373","0.023501","0.013692","0.017747","0.01731","0.014715","1"
"0.040401","0.031144","0.038634","0.024968","0.012316","0.018762","0.016699","0.013208","1"
"0.047154","0.038626","0.0491","0.025618","0.01173","0.019124","0.017793","0.013356","1"
"0.059834","0.038728","0.05235","0.023898","0.014078","0.02175","0.022123","0.017354","1"
"0.062809","0.040173","0.050322","0.0212","0.012282","0.018363","0.018238","0.016583","1"
"0.058762","0.041104","0.069227","0.020654","0.015359","0.024349","0.024345","0.018755","1"
"0.074578","0.047153","0.050167","0.021427","0.012758","0.015002","0.017205","0.014662","1"
"0.051019","0.03634","0.051187","0.016253","0.01249","0.024065","0.024557","0.018106","1"
"0.045979","0.037737","0.039748","0.01902","0.012099","0.015859","0.015432","0.013428","1"
"0.068804","0.050761","0.051922","0.023259","0.015103","0.028629","0.02877","0.021293","1"
"0.045909","0.033127","0.047558","0.018507","0.012805","0.020378","0.021232","0.016494","1"
"0.050332","0.032849","0.045477","0.021303","0.013113","0.020981","0.0229","0.017198","1"
"0.044465","0.039296","0.059093","0.022465","0.013786","0.020258","0.020383","0.017015","1"
"0.047539","0.035272","0.068397","0.023522","0.010782","0.018343","0.018432","0.015064","1"
"0.062818","0.048318","0.067176","0.022721","0.012726","0.017505","0.019011","0.017773","1"
"0.049374","0.043832","0.050058","0.021806","0.013944","0.018971","0.019207","0.013377","1"
"0.054676","0.04045","0.074683","0.021196","0.014726","0.023786","0.02565","0.017334","1"
"0.047958","0.044658","0.05779","0.020173","0.015962","0.027393","0.031185","0.01947","1"
"0.057801","0.049544","0.048951","0.025197","0.01371","0.018241","0.020139","0.01603","1"
"0.060161","0.044792","0.051343","0.023382","0.01309","0.018062","0.021627","0.015779","1"
"0.054314","0.042262","0.049127","0.022599","0.011806","0.018651","0.018764","0.014985","1"
"0.060071","0.042016","0.060643","0.025007","0.01416","0.026678","0.02582","0.017459","1"
"0.051325","0.039871","0.055129","0.02214","0.013245","0.023993","0.028703","0.019782","1"
"0.069001","0.054553","0.053993","0.024298","0.014251","0.025393","0.027254","0.017953","1"
"0.066984","0.051641","0.060661","0.026994","0.013983","0.027893","0.034298","0.019016","1"
"0.053962","0.041771","0.057219","0.024232","0.013063","0.017605","0.0197","0.014279","1"
"0.04773","0.046467","0.057966","0.02361","0.013731","0.018729","0.022119","0.015977","1"
"0.060631","0.039708","0.05466","0.02115","0.012824","0.019146","0.024675","0.014416","1"
"0.057308","0.039719","0.070745","0.02304","0.014055","0.021441","0.022071","0.014507","1"
"0.049673","0.043931","0.064","0.027601","0.011389","0.018285","0.01805","0.015766","1"
"0.051373","0.037515","0.066037","0.021752","0.012132","0.020271","0.023665","0.016382","1"
"0.042149","0.037883","0.066613","0.024265","0.013742","0.018975","0.01952","0.01292","1"
"0.051404","0.036094","0.065921","0.022504","0.012846","0.025461","0.032235","0.018907","1"
"0.059592","0.043517","0.053031","0.023776","0.013851","0.019776","0.02213","0.014801","1"
"0.038113","0.03533","0.060403","0.023017","0.012309","0.019693","0.021067","0.013597","1"
"0.039358","0.024931","0.058685","0.018512","0.011931","0.018365","0.023459","0.015669","1"
"0.053886","0.054175","0.073668","0.025845","0.014619","0.0293","0.035474","0.023959","1"
"0.053205","0.03823","0.057583","0.024461","0.012519","0.014902","0.015973","0.012402","1"
"0.053864","0.035378","0.051339","0.022873","0.013344","0.017183","0.019589","0.015191","1"
"0.058092","0.035113","0.061191","0.023863","0.014894","0.023434","0.025029","0.016536","1"
"0.047435","0.028997","0.052919","0.017983","0.011928","0.016546","0.016411","0.012344","1"
"0.03771","0.028761","0.052419","0.021222","0.013343","0.019862","0.020467","0.013556","1"
"0.067421","0.046556","0.079745","0.027529","0.013526","0.023717","0.029521","0.018322","1"
"0.042956","0.05039","0.070781","0.025765","0.01275","0.023713","0.028148","0.018005","1"
"0.058038","0.038357","0.0635","0.026302","0.015805","0.027533","0.030593","0.01683","1"
"0.048984","0.039699","0.067261","0.023444","0.012599","0.018241","0.022593","0.014294","1"
"0.059436","0.059738","0.077538","0.026865","0.014631","0.024898","0.028375","0.018517","1"
"0.060525","0.046729","0.071199","0.030597","0.015857","0.023053","0.028157","0.017094","1"
"0.075214","0.060522","0.094489","0.033393","0.016087","0.01861","0.016478","0.015921","1"
"0.060737","0.037518","0.091516","0.025188","0.014013","0.018087","0.019245","0.014436","1"
"0.056748","0.062526","0.0816","0.027806","0.013393","0.01907","0.018594","0.01552","1"
"0.052106","0.031798","0.072488","0.030118","0.01502","0.019521","0.018919","0.01683","1"
"0.068987","0.038263","0.0716","0.027349","0.014554","0.021441","0.023203","0.018187","1"
"0.057291","0.040201","0.065681","0.024898","0.011859","0.019952","0.022616","0.016564","1"
"0.058228","0.047453","0.072798","0.026503","0.014331","0.02166","0.017761","0.013","1"
"0.047261","0.04083","0.061057","0.023896","0.013157","0.021303","0.021582","0.01691","1"
"0.06372","0.03489","0.06985","0.027256","0.013507","0.01874","0.018032","0.015697","1"
"0.053341","0.03955","0.072712","0.021031","0.0122","0.018014","0.019351","0.014802","1"
"0.046159","0.045304","0.068003","0.026061","0.011657","0.015773","0.014197","0.013434","1"
"0.04779","0.033611","0.059561","0.027751","0.01306","0.014938","0.01411","0.013212","1"
"0.049339","0.030107","0.082942","0.020541","0.012926","0.02001","0.02363","0.017936","1"
"0.053883","0.038607","0.085041","0.025431","0.014195","0.018794","0.01731","0.016626","1"
"0.06084","0.035875","0.067732","0.025433","0.013694","0.020498","0.021881","0.017535","1"
"0.051521","0.036785","0.062531","0.02714","0.013701","0.022244","0.019908","0.016889","1"
"0.047853","0.035131","0.071977","0.030071","0.013976","0.017016","0.016353","0.015121","1"
"0.050648","0.030383","0.073741","0.026508","0.012505","0.021132","0.019315","0.014567","1"
"0.050459","0.035885","0.068254","0.02557","0.013969","0.016202","0.016469","0.013442","1"
"0.064392","0.044431","0.077652","0.021269","0.014263","0.02174","0.018738","0.014644","1"
"0.047756","0.040277","0.065221","0.027801","0.013446","0.014833","0.01453","0.014966","1"
"0.042818","0.038015","0.066041","0.025584","0.013339","0.020583","0.017103","0.016478","1"
"0.05947","0.033494","0.07822","0.028187","0.012983","0.018436","0.017483","0.016185","1"
"0.047176","0.036252","0.072922","0.026763","0.013085","0.015804","0.017085","0.013411","1"
"0.054015","0.043717","0.072416","0.027347","0.012765","0.017551","0.017272","0.013577","1"
"0.040735","0.042031","0.069656","0.027105","0.013316","0.017058","0.021478","0.013736","1"
"0.051533","0.040879","0.076414","0.027917","0.012668","0.01628","0.014237","0.01302","1"
"0.041473","0.04042","0.075572","0.026447","0.014933","0.018326","0.021613","0.015129","1"
"0.050897","0.03468","0.083139","0.025241","0.013527","0.021956","0.018946","0.016536","1"
"0.025597","0.070471","0.017273","0.013779","0.017153","0.050434","0.025553","0.02149","1"
"0.062631","0.053765","0.016107","0.014764","0.020713","0.062945","0.028415","0.024063","1"
"0.031638","0.015053","0.012728","0.012324","0.016724","0.043578","0.031261","0.019503","1"
"0.056326","0.029961","0.015807","0.01242","0.01735","0.058451","0.028165","0.022825","1"
"0.018915","0.015902","0.012282","0.011928","0.01533","0.055248","0.028216","0.020436","1"
"0.02708","0.022175","0.016566","0.015361","0.0167","0.048903","0.029134","0.02509","1"
"0.022381","0.047796","0.014698","0.013315","0.013895","0.031784","0.01877","0.016268","1"
"0.044874","0.030305","0.015749","0.011827","0.015961","0.04892","0.025913","0.021516","1"
"0.019337","0.020444","0.01172","0.011903","0.012387","0.055249","0.026431","0.019708","1"
"0.023043","0.028012","0.013928","0.011962","0.014054","0.037037","0.017408","0.015635","1"
"0.014773","0.017202","0.013172","0.01117","0.014683","0.036642","0.021319","0.016109","1"
"0.020969","0.016434","0.01248","0.011463","0.012774","0.03269","0.0173","0.015601","1"
"0.054366","0.020439","0.012888","0.010712","0.012086","0.034796","0.019138","0.0178","1"
"0.021337","0.014662","0.013245","0.012572","0.012056","0.029306","0.018043","0.014478","1"
"0.040378","0.018559","0.014044","0.012384","0.012956","0.037872","0.019403","0.015785","1"
"0.034554","0.012946","0.013044","0.012983","0.014953","0.047181","0.023309","0.018432","1"
"0.035628","0.020507","0.017969","0.015592","0.017019","0.041281","0.026868","0.023273","1"
"0.017681","0.012076","0.013868","0.011777","0.01521","0.037568","0.020745","0.018066","1"
"0.017629","0.012176","0.011615","0.01117","0.015284","0.058751","0.024045","0.017112","1"
"0.029973","0.014558","0.012945","0.011","0.012822","0.033385","0.016175","0.014222","1"
"0.049851","0.026979","0.018372","0.015056","0.020358","0.06478","0.036849","0.027937","1"
"0.03163","0.017321","0.014694","0.012244","0.011535","0.036531","0.019484","0.015193","1"
"0.018607","0.013307","0.011716","0.01276","0.012859","0.042058","0.024761","0.018443","1"
"0.01583","0.01409","0.013499","0.010552","0.013984","0.042465","0.021592","0.015801","1"
"0.036681","0.0203","0.016755","0.015964","0.019761","0.054307","0.029983","0.02344","1"
"0.025221","0.019416","0.011808","0.010469","0.011746","0.031785","0.018923","0.014753","1"
"0.0434","0.017816","0.013905","0.014957","0.017677","0.047304","0.02361","0.020125","1"
"0.025614","0.014048","0.013238","0.013633","0.014202","0.041933","0.023486","0.016941","1"
"0.02319","0.014372","0.013667","0.011288","0.013461","0.040927","0.021531","0.015714","1"
"0.014414","0.01098","0.011888","0.010512","0.010677","0.021035","0.013331","0.011984","1"
"0.031269","0.013611","0.012625","0.010592","0.011184","0.025457","0.019793","0.013568","1"
"0.037341","0.015372","0.013302","0.010812","0.013355","0.035892","0.018942","0.017148","1"
"0.018373","0.012249","0.010421","0.0098961","0.011597","0.029336","0.015591","0.013345","1"
"0.024503","0.013478","0.012147","0.010759","0.010528","0.021837","0.013161","0.012579","1"
"0.039193","0.014912","0.012459","0.011624","0.012316","0.0324","0.0177","0.014199","1"
"0.029107","0.011925","0.011296","0.0095917","0.010887","0.0247","0.019252","0.019871","1"
"0.018881","0.010738","0.011309","0.01099","0.012613","0.031867","0.01796","0.015555","1"
"0.019796","0.023692","0.012457","0.0088006","0.011597","0.027634","0.015334","0.011942","1"
"0.027838","0.012735","0.010494","0.010602","0.010553","0.024414","0.0161","0.012291","1"
"0.068878","0.016482","0.014435","0.012212","0.013154","0.034786","0.022628","0.01837","1"
"0.022934","0.011784","0.011978","0.0099942","0.011577","0.027641","0.016877","0.013964","1"
"0.026662","0.013533","0.012233","0.010376","0.011641","0.033154","0.017254","0.013773","1"
"0.039216","0.015132","0.012661","0.010483","0.012531","0.022959","0.015178","0.019023","1"
"0.019857","0.014933","0.013986","0.014442","0.020567","0.068835","0.037648","0.025664","1"
"0.026906","0.014431","0.011154","0.011928","0.012182","0.02436","0.015955","0.012881","1"
"0.027334","0.014071","0.010113","0.010318","0.011375","0.029988","0.014938","0.014107","1"
"0.027713","0.01513","0.012773","0.011162","0.013282","0.032052","0.016718","0.013381","1"
"0.040314","0.016591","0.014158","0.010085","0.013191","0.040499","0.022846","0.030279","1"
"0.028181","0.035867","0.013157","0.010948","0.013397","0.035278","0.033546","0.03284","1"
"0.027626","0.033967","0.012688","0.011147","0.012201","0.07455","0.054258","0.020307","1"
"0.020681","0.084716","0.014656","0.010544","0.0099229","0.010732","0.022591","0.010157","1"
"0.068062","0.015389","0.016599","0.015015","0.020957","0.052225","0.027243","0.024657","1"
"0.041859","0.017683","0.016956","0.017959","0.023528","0.058763","0.029641","0.025084","1"
"0.02077","0.013769","0.014833","0.01335","0.019044","0.059656","0.033252","0.023412","1"
"0.025779","0.014966","0.014235","0.013293","0.014787","0.041799","0.024551","0.02155","1"
"0.013495","0.011452","0.011833","0.0099538","0.011751","0.027028","0.01359","0.010989","1"
"0.012926","0.011609","0.011596","0.010376","0.0089794","0.028991","0.015869","0.01251","1"
"0.015119","0.013099","0.00986","0.012101","0.012898","0.040495","0.018595","0.017198","1"
"0.014699","0.014106","0.010769","0.012254","0.011622","0.025957","0.017118","0.015554","1"
"0.015055","0.013185","0.013785","0.012018","0.015068","0.045439","0.020801","0.015326","1"
"0.015391","0.014938","0.013451","0.013109","0.014919","0.049223","0.022738","0.019406","1"
"0.013709","0.012723","0.012818","0.013307","0.016309","0.038875","0.018514","0.014926","1"
"0.013254","0.011138","0.00986","0.010827","0.011978","0.030573","0.01674","0.014178","1"
"0.013909","0.011133","0.013145","0.01281","0.013927","0.034218","0.020199","0.01708","1"
"0.014185","0.01138","0.012384","0.010915","0.015716","0.050197","0.024426","0.017754","1"
"0.015913","0.012933","0.011875","0.011086","0.013347","0.041999","0.021482","0.01858","1"
"0.014631","0.011173","0.010798","0.010763","0.013483","0.038568","0.019562","0.015811","1"
"0.017502","0.011651","0.011988","0.011447","0.013745","0.033553","0.018169","0.017325","1"
"0.030849","0.012377","0.012106","0.014501","0.015747","0.048914","0.02407","0.023336","1"
"0.013918","0.012023","0.011473","0.0115","0.011583","0.029741","0.017085","0.012605","1"
"0.014666","0.012836","0.013454","0.013083","0.015825","0.038521","0.018682","0.017142","1"
"0.013866","0.0097962","0.011882","0.011758","0.011265","0.026772","0.016708","0.012994","1"
"0.013772","0.01179","0.012233","0.011009","0.014607","0.035025","0.01761","0.013758","1"
"0.014653","0.015183","0.013539","0.010962","0.011773","0.032083","0.021948","0.016091","1"
"0.013416","0.013041","0.012308","0.011076","0.012867","0.028247","0.014669","0.012288","1"
"0.016577","0.012408","0.012348","0.012908","0.016771","0.044296","0.02034","0.017921","1"
"0.012224","0.010375","0.011447","0.010589","0.010752","0.023182","0.012917","0.012612","1"
"0.01292","0.012638","0.012081","0.010275","0.011651","0.024574","0.014478","0.011976","1"
"0.01179","0.01129","0.012263","0.011452","0.012307","0.028217","0.014275","0.01343","1"
"0.0146","0.012434","0.012723","0.011375","0.012693","0.034499","0.016217","0.014926","1"
"0.0132","0.013385","0.012685","0.011707","0.01201","0.02568","0.012603","0.011039","1"
"0.012047","0.012891","0.012707","0.010478","0.010697","0.025749","0.013838","0.010639","1"
"0.014189","0.012973","0.012837","0.01192","0.014537","0.035254","0.020136","0.015191","1"
"0.01325","0.011594","0.011875","0.010925","0.012661","0.031551","0.016703","0.014501","1"
"0.012554","0.014205","0.011504","0.01015","0.011316","0.022334","0.012157","0.010308","1"
"0.018216","0.015042","0.011098","0.0099614","0.013696","0.033146","0.016614","0.01316","1"
"0.015654","0.014621","0.013646","0.0094994","0.013438","0.031084","0.01952","0.017721","1"
"0.034747","0.013792","0.010974","0.01094","0.011332","0.026245","0.012835","0.013706","1"
"0.016227","0.013537","0.012072","0.010283","0.012653","0.034073","0.017489","0.016268","1"
"0.01212","0.011577","0.011341","0.0099014","0.012115","0.034296","0.015844","0.013754","1"
"0.013089","0.01447","0.014514","0.0087483","0.011631","0.027675","0.016601","0.012434","1"
"0.019375","0.0115","0.01248","0.011664","0.014691","0.03274","0.017887","0.014899","1"
"0.012078","0.010617","0.010236","0.0092879","0.011744","0.020274","0.01238","0.010698","1"
"0.013126","0.011672","0.012204","0.01031","0.012013","0.028412","0.017654","0.014013","1"
"0.012588","0.012008","0.010158","0.010821","0.01186","0.024072","0.015635","0.012769","1"
"0.013202","0.01117","0.01103","0.012011","0.011516","0.022465","0.013925","0.011676","1"
"0.031212","0.011958","0.012442","0.012598","0.016902","0.037784","0.017023","0.014457","1"
"0.014611","0.014998","0.013368","0.011587","0.012768","0.031584","0.015008","0.013699","1"
"0.038276","0.033264","0.064529","0.018841","0.013954","0.022436","0.022024","0.01809","1"
"0.046618","0.0483","0.030315","0.019116","0.013731","0.021371","0.019029","0.015364","1"
"0.035657","0.042892","0.051848","0.01902","0.012473","0.01766","0.015662","0.014081","1"
"0.036371","0.034064","0.027123","0.01707","0.012396","0.01654","0.014316","0.013443","1"
"0.036154","0.031769","0.040898","0.018387","0.014235","0.024375","0.020668","0.013633","1"
"0.046189","0.027956","0.024745","0.015922","0.011778","0.018645","0.017321","0.014311","1"
"0.035934","0.032174","0.036795","0.015193","0.013005","0.016328","0.015567","0.015307","1"
"0.029274","0.040886","0.059404","0.014283","0.013452","0.019219","0.017592","0.015995","1"
"0.037288","0.037016","0.025239","0.014737","0.013274","0.019067","0.016846","0.015164","1"
"0.031985","0.033219","0.023486","0.01395","0.011771","0.017872","0.016637","0.012681","1"
"0.033125","0.05578","0.030341","0.016054","0.012995","0.023263","0.021103","0.016567","1"
"0.039647","0.034758","0.031941","0.015056","0.012341","0.01985","0.01622","0.013966","1"
"0.047134","0.03757","0.033342","0.014208","0.0141","0.025008","0.033972","0.018871","1"
"0.044582","0.041618","0.0311","0.016675","0.012671","0.018067","0.017783","0.01362","1"
"0.036816","0.032656","0.029947","0.014705","0.011866","0.021902","0.01994","0.015072","1"
"0.037627","0.036071","0.030565","0.014698","0.011896","0.019631","0.018406","0.015369","1"
"0.031729","0.029948","0.026378","0.015285","0.012818","0.01684","0.01574","0.013345","1"
"0.056832","0.03235","0.041125","0.016844","0.012995","0.021975","0.020099","0.020394","1"
"0.043538","0.039441","0.062724","0.027475","0.014563","0.019102","0.016804","0.01469","1"
"0.035445","0.034451","0.044586","0.015909","0.01241","0.019803","0.018328","0.017214","1"
"0.043249","0.03714","0.042568","0.018727","0.012177","0.019569","0.017403","0.013616","1"
"0.035022","0.034705","0.051539","0.022332","0.013455","0.019079","0.019568","0.017498","1"
"0.043968","0.039328","0.049448","0.022623","0.014051","0.017826","0.016084","0.013157","1"
"0.038451","0.033523","0.043031","0.020352","0.012726","0.017804","0.017475","0.014462","1"
"0.03259","0.031762","0.045111","0.022626","0.012059","0.01535","0.014486","0.013212","1"
"0.045229","0.035409","0.044537","0.021286","0.014177","0.019685","0.017646","0.015012","1"
"0.037738","0.037382","0.042763","0.017258","0.011944","0.017514","0.016221","0.014042","1"
"0.037945","0.029325","0.04925","0.019746","0.011258","0.014549","0.014688","0.012498","1"
"0.041882","0.033841","0.038423","0.018433","0.01265","0.017921","0.016517","0.014669","1"
"0.039086","0.033693","0.039776","0.018853","0.012236","0.015318","0.015257","0.01432","1"
"0.037037","0.036063","0.042308","0.018712","0.011257","0.017978","0.015102","0.014151","1"
"0.038074","0.031698","0.048982","0.017164","0.012258","0.015418","0.01296","0.013308","1"
"0.036171","0.031853","0.041914","0.015633","0.012115","0.018197","0.016608","0.014125","1"
"0.038026","0.030687","0.038977","0.0161","0.011091","0.017455","0.014385","0.012728","1"
"0.046405","0.03299","0.039367","0.01888","0.012752","0.017218","0.016657","0.01353","1"
"0.038127","0.032438","0.044507","0.019362","0.012141","0.016817","0.014621","0.013528","1"
"0.035328","0.028675","0.037501","0.017692","0.013731","0.020718","0.01596","0.014371","1"
"0.03543","0.029362","0.038255","0.016782","0.012002","0.01521","0.01511","0.01262","1"
"0.040229","0.033216","0.048657","0.015903","0.011329","0.015396","0.01456","0.012329","1"
"0.033721","0.033475","0.050859","0.016749","0.012189","0.016278","0.015504","0.014322","1"
"0.036029","0.026612","0.051686","0.015773","0.012677","0.017068","0.015773","0.012805","1"
"0.041125","0.037064","0.036994","0.014597","0.01274","0.016986","0.015174","0.013799","1"
"0.040137","0.03777","0.044913","0.016152","0.012934","0.020323","0.016682","0.015695","1"
"0.044121","0.037714","0.045663","0.020228","0.010894","0.016175","0.015809","0.013837","1"
"0.036959","0.031195","0.039161","0.016692","0.013604","0.018836","0.016536","0.015363","1"
"0.040104","0.031604","0.041659","0.018558","0.012169","0.018174","0.014344","0.01294","1"
"0.043913","0.03173","0.039448","0.014168","0.012941","0.016677","0.017124","0.014869","1"
"0.03792","0.032238","0.037651","0.017448","0.014189","0.022114","0.01946","0.016219","1"
"0.040792","0.035241","0.037611","0.014782","0.011702","0.015833","0.015887","0.013888","1"
"0.034738","0.028949","0.038315","0.012663","0.01111","0.016109","0.013755","0.012803","1"
"0.034172","0.029253","0.034215","0.01434","0.012458","0.017443","0.015229","0.013916","1"
"0.04136","0.028287","0.042584","0.017214","0.012597","0.018924","0.015976","0.013504","1"
"0.034954","0.033152","0.043765","0.017839","0.01306","0.020693","0.018184","0.015291","1"
"0.032781","0.034699","0.040283","0.016833","0.01455","0.018794","0.016618","0.014218","1"
"0.029317","0.028054","0.04008","0.018393","0.013","0.017285","0.015531","0.014684","1"
"0.034738","0.032695","0.035996","0.015299","0.01322","0.018869","0.017373","0.016482","1"
"0.048358","0.041559","0.039146","0.013723","0.012369","0.017514","0.016511","0.014263","1"
"0.04725","0.034905","0.059895","0.01391","0.012308","0.019023","0.015623","0.015511","1"
"0.035253","0.032706","0.037926","0.013936","0.013687","0.017545","0.017135","0.014621","1"
"0.033289","0.03308","0.043091","0.014484","0.012369","0.019037","0.017316","0.014266","1"
"0.035314","0.030779","0.037006","0.016925","0.012556","0.019131","0.016509","0.014188","1"
"0.03477","0.038242","0.03534","0.015878","0.012718","0.020294","0.017458","0.015392","1"
"0.033273","0.036509","0.04853","0.019965","0.011746","0.018794","0.016532","0.014323","1"
"0.032198","0.031013","0.056748","0.017365","0.012493","0.017558","0.016239","0.013552","1"
"0.039399","0.037963","0.034892","0.014498","0.012538","0.016796","0.017706","0.014284","1"
"0.030159","0.037407","0.03988","0.015468","0.013027","0.019386","0.016492","0.014371","1"
"0.035792","0.034532","0.040627","0.016328","0.014937","0.023031","0.017349","0.014735","1"
"0.042294","0.036718","0.040201","0.016795","0.01274","0.017394","0.016151","0.014816","1"
"0.032056","0.02604","0.049065","0.015737","0.013506","0.018647","0.015701","0.013253","1"
"0.040791","0.04607","0.039829","0.016486","0.014674","0.020137","0.018459","0.014828","1"
"0.038095","0.035921","0.032481","0.014854","0.013137","0.017048","0.017685","0.015292","1"
"0.034761","0.032192","0.036058","0.015102","0.012925","0.01865","0.014773","0.012941","1"
"0.054948","0.046451","0.056511","0.019595","0.013717","0.020447","0.016428","0.018125","1"
"0.048916","0.038141","0.046616","0.018984","0.015117","0.023233","0.02108","0.016626","1"
"0.03707","0.035048","0.067945","0.020419","0.014367","0.016742","0.014883","0.013914","1"
"0.041395","0.03712","0.063625","0.026512","0.013183","0.017713","0.013837","0.014137","1"
"0.033409","0.033038","0.065845","0.022441","0.013495","0.02015","0.018749","0.017285","1"
"0.037085","0.039013","0.071314","0.019547","0.012786","0.018217","0.019058","0.015564","1"
"0.040377","0.0344","0.057165","0.02465","0.013667","0.019054","0.015194","0.013939","1"
"0.045537","0.044318","0.059973","0.023099","0.013914","0.017629","0.017373","0.01583","1"
"0.037269","0.037202","0.062142","0.021021","0.011896","0.016742","0.013989","0.012257","1"
"0.038925","0.039511","0.061472","0.020294","0.014469","0.019546","0.016903","0.014838","1"
"0.036401","0.037369","0.073362","0.019816","0.012474","0.021554","0.021156","0.016998","1"
"0.042906","0.034307","0.054265","0.021004","0.013989","0.021479","0.018291","0.014975","1"
"0.040076","0.034458","0.055974","0.02224","0.014061","0.018096","0.017838","0.015298","1"
"0.042928","0.036942","0.04848","0.019067","0.013245","0.019144","0.018529","0.015597","1"
"0.031421","0.033292","0.057576","0.02462","0.015203","0.023982","0.022368","0.017207","1"
"0.031023","0.03211","0.070888","0.022819","0.014364","0.017075","0.014892","0.015196","1"
"0.035891","0.031233","0.045687","0.019057","0.013483","0.020503","0.016639","0.015475","1"
"0.043401","0.032378","0.05624","0.015775","0.013659","0.018482","0.015338","0.015121","1"
"0.036864","0.081287","0.074637","0.021984","0.019964","0.039708","0.047664","0.025037","1"
"0.055639","0.083091","0.03116","0.017691","0.017276","0.033083","0.041465","0.02515","1"
"0.044377","0.06432","0.035552","0.014183","0.016847","0.035224","0.045263","0.027432","1"
"0.048726","0.050401","0.037853","0.014338","0.015432","0.033831","0.037296","0.023702","1"
"0.042242","0.044902","0.034884","0.016269","0.016234","0.035419","0.047136","0.025067","1"
"0.05096","0.070122","0.054465","0.02446","0.017192","0.03549","0.042922","0.027928","1"
"0.04452","0.051776","0.031424","0.013507","0.013777","0.024201","0.029527","0.020062","1"
"0.067355","0.072131","0.054407","0.018614","0.017488","0.031114","0.04586","0.030263","1"
"0.053946","0.052094","0.042248","0.021653","0.018301","0.03447","0.04013","0.023748","1"
"0.067457","0.060862","0.054635","0.026493","0.018675","0.039346","0.051738","0.029547","1"
"0.078101","0.073728","0.044715","0.021653","0.01841","0.03451","0.037529","0.029673","1"
"0.050535","0.066946","0.044676","0.017214","0.015882","0.027464","0.033356","0.022368","1"
"0.054193","0.067382","0.041953","0.020541","0.019664","0.038426","0.045896","0.027751","1"
"0.053814","0.070858","0.081484","0.026543","0.017219","0.028773","0.03562","0.022587","1"
"0.055201","0.07265","0.07378","0.033992","0.018225","0.029617","0.037016","0.021408","1"
"0.06452","0.059471","0.0692","0.030869","0.01985","0.028364","0.029964","0.022477","1"
"0.050864","0.058058","0.035452","0.016063","0.01678","0.03351","0.044878","0.025261","1"
"0.04786","0.044325","0.039156","0.014405","0.01517","0.024507","0.028619","0.019817","1"
"0.055591","0.058742","0.054798","0.0208","0.015932","0.033098","0.04493","0.027079","1"
"0.049126","0.072196","0.058357","0.032621","0.019164","0.030499","0.036367","0.024491","1"
"0.048518","0.06694","0.061538","0.023029","0.017652","0.027118","0.033767","0.02158","1"
"0.045564","0.075913","0.065287","0.023145","0.017314","0.0343","0.041277","0.024948","1"
"0.043396","0.11171","0.052521","0.018118","0.015202","0.026618","0.028892","0.020663","1"
"0.044966","0.055045","0.051736","0.021433","0.016166","0.031792","0.035355","0.022376","1"
"0.047197","0.074402","0.057314","0.026899","0.01767","0.032311","0.040872","0.024222","1"
"0.058344","0.11873","0.062833","0.020432","0.016101","0.026422","0.026914","0.021925","1"
"0.052524","0.094803","0.06023","0.022856","0.014766","0.025294","0.028293","0.020056","1"
"0.042093","0.099645","0.066223","0.024283","0.017184","0.026301","0.032277","0.024144","1"
"0.063978","0.092781","0.068112","0.025526","0.016242","0.026471","0.033718","0.020734","1"
"0.056307","0.10645","0.056597","0.026197","0.017","0.02696","0.029988","0.022995","1"
"0.058959","0.10293","0.059623","0.019518","0.016971","0.028856","0.035951","0.024827","1"
"0.055123","0.08109","0.054616","0.024781","0.016711","0.026364","0.02952","0.022539","1"
"0.060836","0.062946","0.06864","0.025904","0.016905","0.025161","0.028793","0.020489","1"
"0.062299","0.054484","0.065596","0.022259","0.015557","0.029061","0.034239","0.024728","1"
"0.062481","0.079264","0.082984","0.02982","0.016093","0.026627","0.035064","0.02232","1"
"0.067354","0.077547","0.086214","0.027575","0.019637","0.032696","0.044021","0.026369","1"
"0.065373","0.08916","0.078911","0.025388","0.017208","0.028312","0.040704","0.024134","1"
"0.068488","0.078266","0.072292","0.021148","0.017008","0.030091","0.035513","0.0226","1"
"0.052883","0.06727","0.047257","0.021872","0.016391","0.028503","0.035087","0.021183","1"
"0.067594","0.080711","0.062311","0.022031","0.016583","0.024333","0.026529","0.017918","1"
"0.064701","0.060249","0.046541","0.015818","0.014632","0.019536","0.019146","0.017535","1"
"0.064959","0.063912","0.057453","0.023113","0.016808","0.027912","0.032166","0.022864","1"
"0.063644","0.067203","0.058769","0.020509","0.013925","0.021188","0.022301","0.017898","1"
"0.071211","0.077478","0.062399","0.028437","0.018592","0.027558","0.034605","0.026125","1"
"0.052526","0.060798","0.051211","0.0262","0.018332","0.03283","0.044518","0.025035","1"
"0.049939","0.062502","0.05824","0.021772","0.017196","0.024908","0.027574","0.018821","1"
"0.080392","0.080196","0.062917","0.020813","0.016937","0.028167","0.032","0.022657","1"
"0.064016","0.067882","0.054759","0.027982","0.015068","0.022639","0.025709","0.018645","1"
"0.057422","0.062216","0.060662","0.025644","0.016502","0.032849","0.040909","0.026648","1"
"0.072006","0.082045","0.076121","0.025687","0.016727","0.030206","0.037648","0.024679","1"
"0.061698","0.072374","0.052046","0.025443","0.017129","0.025427","0.033396","0.024875","1"
"0.053047","0.051556","0.034739","0.015617","0.014084","0.020949","0.030044","0.02204","1"
"0.051625","0.051679","0.03944","0.016477","0.016195","0.025688","0.027085","0.019749","1"
"0.059315","0.058005","0.046476","0.018767","0.015842","0.024364","0.022842","0.01888","1"
"0.049833","0.057916","0.037959","0.014156","0.014452","0.020228","0.023545","0.019706","1"
"0.049065","0.057972","0.04824","0.016992","0.014441","0.025079","0.025539","0.017588","1"
"0.044618","0.048943","0.032719","0.014416","0.014759","0.025119","0.030936","0.018308","1"
"0.043538","0.05407","0.036863","0.01913","0.015763","0.023532","0.02721","0.019516","1"
"0.045578","0.047307","0.03382","0.015851","0.0144","0.020359","0.019729","0.01735","1"
"0.035513","0.04517","0.035971","0.013849","0.013296","0.022306","0.020731","0.015928","1"
"0.031346","0.042416","0.029318","0.010899","0.013085","0.019683","0.021178","0.016332","1"
"0.029306","0.030733","0.030929","0.013917","0.01368","0.022488","0.024096","0.018592","1"
"0.043565","0.037049","0.04439","0.018203","0.013829","0.027963","0.033992","0.021197","1"
"0.041832","0.04753","0.050061","0.020461","0.017334","0.032643","0.040591","0.025592","1"
"0.050358","0.049615","0.046734","0.02164","0.014959","0.024931","0.028936","0.022634","1"
"0.054668","0.052921","0.056237","0.018375","0.014725","0.026306","0.0288","0.021306","1"
"0.05551","0.058256","0.058986","0.027085","0.016958","0.027806","0.023975","0.019994","1"
"0.053121","0.057471","0.053013","0.017263","0.014854","0.02958","0.034799","0.02046","1"
"0.046352","0.059881","0.055827","0.024163","0.015137","0.024467","0.027668","0.019852","1"
"0.046329","0.063573","0.062106","0.021578","0.017478","0.030111","0.033474","0.020878","1"
"0.03856","0.079598","0.052828","0.019241","0.01486","0.024153","0.026259","0.018012","1"
"0.050577","0.057733","0.041721","0.017815","0.015837","0.023344","0.02785","0.020767","1"
"0.051151","0.061514","0.061755","0.02281","0.015512","0.024954","0.027681","0.021117","1"
"0.063975","0.057891","0.10652","0.03081","0.016667","0.028015","0.03591","0.025751","1"
"0.063895","0.071035","0.079427","0.027085","0.017312","0.035388","0.043506","0.026245","1"
"0.055637","0.073213","0.063998","0.020019","0.015013","0.027478","0.03218","0.022068","1"
"0.053521","0.088083","0.07309","0.025334","0.016306","0.031263","0.038195","0.025248","1"
"0.050296","0.062363","0.061494","0.023684","0.015954","0.024662","0.03157","0.018624","1"
"0.051365","0.080147","0.065056","0.031614","0.016351","0.02888","0.032223","0.02208","1"
"0.047325","0.055928","0.059229","0.023839","0.014825","0.022659","0.022417","0.018103","1"
"0.055055","0.052297","0.060413","0.023369","0.01778","0.025501","0.032735","0.022995","1"
"0.028375","0.1292","0.28208","0.03747","0.030805","0.051855","0.029076","0.034923","1"
"0.034467","0.1364","0.25343","0.030975","0.025781","0.041262","0.026135","0.020969","1"
"0.02975","0.12105","0.23135","0.037096","0.030921","0.046185","0.026945","0.018588","1"
"0.04564","0.1436","0.27216","0.047246","0.03095","0.045578","0.032455","0.021998","1"
"0.090064","0.20745","0.32827","0.06013","0.038483","0.059121","0.035006","0.024244","1"
"0.072625","0.16979","0.31542","0.091815","0.038085","0.060283","0.037756","0.025459","1"
"0.055872","0.14133","0.27564","0.088437","0.027864","0.047201","0.030655","0.042606","1"
"0.04536","0.15723","0.2286","0.095974","0.033484","0.056075","0.037084","0.051285","1"
"0.043187","0.14831","0.23264","0.046464","0.03401","0.056644","0.032401","0.057102","1"
"0.053656","0.16444","0.26273","0.04774","0.042383","0.083428","0.049646","0.068621","1"
"0.073616","0.20756","0.26125","0.064443","0.036014","0.064724","0.055395","0.075823","1"
"0.047026","0.13522","0.24757","0.042232","0.036703","0.064237","0.038307","0.05392","1"
"0.048274","0.14142","0.23094","0.045535","0.037732","0.068296","0.039561","0.0616","1"
"0.049892","0.15252","0.26347","0.069375","0.042123","0.069327","0.034285","0.060379","1"
"0.047148","0.17401","0.24157","0.049317","0.04402","0.063744","0.053836","0.066588","1"
"0.043467","0.15359","0.28007","0.042627","0.03229","0.058886","0.049029","0.055177","1"
"0.042055","0.20397","0.26289","0.059774","0.036077","0.062317","0.038301","0.075462","1"
"0.064131","0.17458","0.24736","0.052767","0.052582","0.067931","0.036607","0.043108","1"
"0.046177","0.13456","0.22259","0.057472","0.050055","0.071095","0.036829","0.061106","1"
"0.051127","0.13393","0.21327","0.053761","0.050366","0.062604","0.049052","0.047595","1"
"0.036051","0.14888","0.21196","0.070649","0.032573","0.060362","0.05084","0.085788","1"
"0.049241","0.15252","0.19293","0.06426","0.043109","0.076045","0.047939","0.055172","1"
"0.041193","0.13264","0.21953","0.047478","0.03588","0.054599","0.053236","0.065115","1"
"0.059835","0.12889","0.23629","0.049786","0.047692","0.088266","0.070852","0.098269","1"
"0.047192","0.14306","0.22797","0.052034","0.034301","0.058681","0.051167","0.065705","1"
"0.041633","0.13655","0.25267","0.047287","0.037094","0.056999","0.045521","0.10245","1"
"0.040317","0.1139","0.27388","0.051972","0.036233","0.057789","0.052082","0.07489","1"
"0.050432","0.15237","0.23443","0.056874","0.038092","0.08423","0.05335","0.088601","1"
"0.036356","0.11611","0.20984","0.050747","0.040871","0.067958","0.058672","0.083044","1"
"0.042826","0.14498","0.17964","0.043197","0.043411","0.06536","0.05052","0.068645","1"
"0.048118","0.1862","0.21675","0.066378","0.03676","0.052393","0.053594","0.073481","1"
"0.057272","0.1701","0.25348","0.052323","0.032791","0.050452","0.050607","0.094781","1"
"0.049245","0.17417","0.21573","0.050573","0.045735","0.074284","0.054088","0.07821","1"
"0.051179","0.20289","0.26438","0.067409","0.032871","0.050478","0.077119","0.089909","1"
"0.046345","0.15846","0.25117","0.059266","0.03483","0.053803","0.055662","0.080993","1"
"0.051159","0.15665","0.26243","0.051495","0.039685","0.06818","0.073749","0.14837","1"
"0.046292","0.16351","0.24291","0.047603","0.031098","0.047207","0.05532","0.079775","1"
"0.030471","0.072052","0.059829","0.020404","0.031321","0.078318","0.043141","0.018329","2"
"0.021643","0.049323","0.031707","0.025366","0.031055","0.062073","0.037582","0.014399","2"
"0.019756","0.066241","0.079849","0.026689","0.034696","0.075733","0.029457","0.012673","2"
"0.02514","0.069204","0.027341","0.020218","0.034563","0.081827","0.034681","0.011413","2"
"0.025848","0.075088","0.036192","0.019611","0.022811","0.045393","0.028163","0.014497","2"
"0.021463","0.056758","0.065609","0.019009","0.021361","0.042384","0.023874","0.013305","2"
"0.023207","0.053336","0.0216","0.017656","0.02104","0.06138","0.023954","0.01392","2"
"0.019536","0.054245","0.025","0.02161","0.031952","0.099775","0.03275","0.014983","2"
"0.017046","0.031875","0.014982","0.018608","0.020403","0.038339","0.023447","0.013004","2"
"0.015335","0.05107","0.050115","0.015252","0.021844","0.047551","0.028514","0.011303","2"
"0.018477","0.048767","0.024677","0.01942","0.023768","0.058592","0.028641","0.014957","2"
"0.018215","0.051235","0.037421","0.021867","0.021611","0.055501","0.027904","0.012599","2"
"0.021617","0.061265","0.025798","0.020548","0.028673","0.065801","0.025574","0.015818","2"
"0.018641","0.041981","0.023257","0.019174","0.025325","0.059611","0.028465","0.013169","2"
"0.016477","0.043931","0.014637","0.017869","0.026146","0.052933","0.027874","0.012539","2"
"0.016012","0.03199","0.015651","0.016629","0.025173","0.044387","0.030273","0.013369","2"
"0.021209","0.033924","0.019162","0.015715","0.027183","0.049345","0.023812","0.015904","2"
"0.016145","0.06181","0.018222","0.019321","0.024724","0.072192","0.027777","0.013109","2"
"0.018794","0.035704","0.017679","0.015695","0.023332","0.047704","0.024298","0.013135","2"
"0.015238","0.037182","0.013637","0.015041","0.019352","0.037263","0.020918","0.01024","2"
"0.016234","0.047988","0.021863","0.015362","0.020029","0.03591","0.021507","0.0097126","2"
"0.020924","0.0407","0.036203","0.014487","0.017231","0.028778","0.025056","0.013627","2"
"0.018807","0.058547","0.050531","0.015112","0.024541","0.044485","0.02718","0.013754","2"
"0.017166","0.047405","0.03582","0.014662","0.017664","0.036272","0.023754","0.012489","2"
"0.014521","0.046466","0.04132","0.016923","0.019377","0.047279","0.024317","0.012033","2"
"0.016791","0.054459","0.033545","0.014172","0.021303","0.044264","0.023616","0.010787","2"
"0.016892","0.031956","0.043232","0.013804","0.019423","0.039093","0.024168","0.01211","2"
"0.016092","0.042075","0.024336","0.019081","0.016326","0.031814","0.021773","0.013281","2"
"0.015332","0.051562","0.028658","0.014022","0.019705","0.038494","0.024883","0.011402","2"
"0.012257","0.047118","0.033198","0.01466","0.019228","0.03229","0.019851","0.011011","2"
"0.015583","0.046932","0.01711","0.014063","0.018899","0.040358","0.025215","0.013013","2"
"0.016675","0.046413","0.03293","0.013858","0.017731","0.036643","0.021318","0.012811","2"
"0.020308","0.062411","0.027243","0.015237","0.018248","0.032674","0.022492","0.011246","2"
"0.014183","0.04672","0.050084","0.014625","0.016889","0.037062","0.023184","0.012267","2"
"0.015485","0.039886","0.035957","0.013918","0.018716","0.03311","0.022762","0.011529","2"
"0.016851","0.05276","0.026441","0.016599","0.021216","0.036462","0.023012","0.013887","2"
"0.015053","0.047007","0.037909","0.016593","0.021593","0.055696","0.026917","0.01335","2"
"0.015792","0.040447","0.043966","0.015235","0.021966","0.040513","0.021298","0.010528","2"
"0.021164","0.049322","0.037658","0.019106","0.022775","0.044607","0.022441","0.016243","2"
"0.018019","0.047593","0.022355","0.018654","0.02213","0.044047","0.022209","0.014607","2"
"0.015522","0.04165","0.038288","0.015874","0.021085","0.04207","0.024817","0.012617","2"
"0.016861","0.053261","0.053841","0.012828","0.017846","0.046478","0.027942","0.012314","2"
"0.017494","0.044182","0.05238","0.016007","0.019877","0.031646","0.025936","0.012378","2"
"0.019178","0.047552","0.022317","0.017989","0.022062","0.043464","0.029561","0.013188","2"
"0.019492","0.045926","0.031346","0.018763","0.024079","0.043861","0.024496","0.014414","2"
"0.015522","0.038444","0.034989","0.015143","0.018146","0.035472","0.025957","0.012915","2"
"0.01493","0.031627","0.018456","0.015806","0.021613","0.044607","0.024894","0.01116","2"
"0.013222","0.047185","0.044816","0.013925","0.018734","0.043103","0.022351","0.012115","2"
"0.018202","0.032479","0.015103","0.01439","0.028005","0.054973","0.023048","0.014275","2"
"0.015597","0.046042","0.015224","0.015954","0.02146","0.043617","0.024317","0.012408","2"
"0.016336","0.040576","0.0191","0.015535","0.0205","0.040222","0.025936","0.012195","2"
"0.034336","0.051608","0.053801","0.0177","0.022602","0.066665","0.03116","0.019158","2"
"0.015123","0.036476","0.014774","0.01263","0.01879","0.03449","0.020388","0.010814","2"
"0.016722","0.037335","0.015257","0.013161","0.019595","0.035993","0.020992","0.011651","2"
"0.013219","0.034655","0.016166","0.015986","0.017569","0.034584","0.028731","0.012021","2"
"0.018945","0.035594","0.016916","0.013753","0.021249","0.043395","0.029596","0.012894","2"
"0.017767","0.04979","0.017895","0.014798","0.020115","0.031164","0.02598","0.012187","2"
"0.016057","0.045436","0.026198","0.017444","0.018067","0.033961","0.025378","0.012819","2"
"0.016352","0.032407","0.01561","0.013719","0.017936","0.027258","0.019006","0.011605","2"
"0.016648","0.045331","0.016501","0.01433","0.021645","0.038087","0.02702","0.012375","2"
"0.015407","0.034767","0.016437","0.014118","0.017918","0.029325","0.024551","0.012681","2"
"0.016494","0.039049","0.015382","0.016067","0.023889","0.042166","0.027031","0.013097","2"
"0.015873","0.039174","0.020392","0.016088","0.022077","0.03964","0.020681","0.019539","2"
"0.015802","0.050409","0.03037","0.01581","0.021745","0.043623","0.023434","0.012081","2"
"0.016117","0.03399","0.01886","0.020608","0.01906","0.038622","0.019337","0.013166","2"
"0.016926","0.016742","0.014451","0.017009","0.018325","0.036168","0.023292","0.01302","2"
"0.017607","0.047378","0.037354","0.032488","0.017054","0.036623","0.028254","0.015191","2"
"0.015219","0.03525","0.026209","0.021413","0.020899","0.041949","0.027747","0.013514","2"
"0.017723","0.025975","0.025311","0.024345","0.018015","0.040171","0.025702","0.012824","2"
"0.018005","0.03754","0.022721","0.017911","0.021625","0.043374","0.02604","0.018225","2"
"0.019803","0.045355","0.030331","0.019551","0.022152","0.050596","0.021572","0.014256","2"
"0.017497","0.023574","0.023093","0.021672","0.026253","0.049741","0.026004","0.013385","2"
"0.01439","0.030951","0.023066","0.020481","0.019044","0.037984","0.022065","0.011847","2"
"0.014777","0.02713","0.021388","0.022173","0.020263","0.035432","0.0264","0.011049","2"
"0.015487","0.026502","0.018638","0.015984","0.020722","0.03506","0.024524","0.011499","2"
"0.013628","0.032067","0.026415","0.020062","0.019632","0.035618","0.031432","0.010791","2"
"0.017785","0.034403","0.028","0.020326","0.020464","0.038505","0.0274","0.012624","2"
"0.014298","0.026052","0.032968","0.018936","0.01848","0.037228","0.021781","0.012544","2"
"0.013262","0.034711","0.032649","0.019407","0.019891","0.035955","0.02437","0.012111","2"
"0.016962","0.041871","0.030095","0.019081","0.024667","0.048867","0.026216","0.013917","2"
"0.016235","0.028675","0.045029","0.022622","0.023585","0.044148","0.023684","0.012456","2"
"0.017837","0.046596","0.03547","0.017166","0.019994","0.03439","0.026892","0.012329","2"
"0.01438","0.034396","0.02682","0.021041","0.02191","0.036787","0.027879","0.011246","2"
"0.016129","0.03945","0.027632","0.017111","0.020559","0.044586","0.025881","0.013391","2"
"0.015627","0.032679","0.029373","0.016393","0.017865","0.038249","0.025329","0.013557","2"
"0.015771","0.046518","0.037598","0.019215","0.021962","0.049192","0.026469","0.013779","2"
"0.014726","0.038273","0.022984","0.019729","0.019049","0.031899","0.018482","0.012718","2"
"0.019262","0.033755","0.02621","0.014823","0.019253","0.045869","0.025729","0.015038","2"
"0.016325","0.034957","0.018138","0.01438","0.019305","0.039481","0.026467","0.013274","2"
"0.016717","0.047279","0.018437","0.012514","0.020212","0.036199","0.025156","0.012929","2"
"0.018438","0.042196","0.034773","0.012539","0.018357","0.037254","0.029384","0.014866","2"
"0.017727","0.041046","0.030683","0.018631","0.021627","0.040703","0.023514","0.014983","2"
"0.017831","0.05052","0.025757","0.016467","0.018833","0.032963","0.02565","0.014229","2"
"0.021811","0.051209","0.020113","0.016192","0.027022","0.060237","0.028647","0.015469","2"
"0.016644","0.040794","0.022009","0.016209","0.019715","0.034511","0.027854","0.012042","2"
"0.019928","0.040646","0.034203","0.020509","0.024644","0.041455","0.030159","0.01535","2"
"0.019822","0.040641","0.027145","0.017459","0.01925","0.0357","0.025313","0.015184","2"
"0.017006","0.052707","0.020077","0.01293","0.015985","0.032232","0.02459","0.01219","2"
"0.0188","0.04935","0.019779","0.016444","0.017082","0.033086","0.029202","0.013685","2"
"0.023284","0.049062","0.025954","0.018786","0.024115","0.040391","0.028723","0.017942","2"
"0.018548","0.042964","0.024805","0.016017","0.017465","0.033756","0.030068","0.013718","2"
"0.017568","0.044979","0.020517","0.015513","0.017601","0.029946","0.031735","0.012555","2"
"0.017032","0.047128","0.023446","0.015399","0.018016","0.036513","0.023593","0.013709","2"
"0.01601","0.034364","0.02278","0.015758","0.021495","0.041158","0.025291","0.012886","2"
"0.017999","0.04383","0.021143","0.015651","0.025481","0.047404","0.024017","0.015156","2"
"0.015651","0.035933","0.063235","0.015193","0.021216","0.038478","0.027938","0.009249","2"
"0.012033","0.042046","0.015164","0.01439","0.018103","0.0351","0.020085","0.0102","2"
"0.015165","0.038186","0.015301","0.012269","0.019886","0.042658","0.020898","0.010126","2"
"0.011409","0.027611","0.013624","0.012717","0.017308","0.026411","0.023822","0.010074","2"
"0.013519","0.025491","0.019494","0.011489","0.017323","0.029891","0.02355","0.0097851","2"
"0.012686","0.039178","0.014327","0.015242","0.02009","0.038361","0.024773","0.0099433","2"
"0.013723","0.028749","0.013634","0.012965","0.01801","0.036911","0.020826","0.0097346","2"
"0.014717","0.044826","0.05165","0.013757","0.020115","0.03703","0.030228","0.0098483","2"
"0.011162","0.033806","0.013454","0.012101","0.015417","0.03057","0.022774","0.0099213","2"
"0.01544","0.039365","0.013717","0.011971","0.020078","0.038699","0.024487","0.0099659","2"
"0.013627","0.038009","0.013513","0.012011","0.017511","0.033086","0.020222","0.010366","2"
"0.011928","0.029321","0.013872","0.011081","0.016205","0.031643","0.028084","0.010103","2"
"0.016011","0.044112","0.013179","0.011972","0.015728","0.027667","0.02269","0.0094579","2"
"0.014881","0.043247","0.014315","0.011816","0.017687","0.042893","0.028543","0.010686","2"
"0.01279","0.0341","0.013742","0.011935","0.01921","0.030066","0.023354","0.0089944","2"
"0.014435","0.045136","0.014073","0.011113","0.017367","0.02649","0.023742","0.0098899","2"
"0.012926","0.033474","0.025194","0.010789","0.01698","0.032115","0.020662","0.0095955","2"
"0.016311","0.056661","0.012527","0.011657","0.017211","0.040571","0.0237","0.0091139","2"
"0.013161","0.029308","0.012229","0.012081","0.016669","0.040313","0.027575","0.0099975","2"
"0.015528","0.028087","0.012558","0.011105","0.020733","0.055262","0.034157","0.010607","2"
"0.013245","0.034489","0.011876","0.011915","0.017414","0.033757","0.025756","0.010371","2"
"0.013603","0.028188","0.013031","0.010636","0.01746","0.036551","0.025327","0.009719","2"
"0.013152","0.039001","0.021416","0.012187","0.015359","0.031534","0.021825","0.010163","2"
"0.011248","0.039333","0.015643","0.011166","0.01807","0.032703","0.029791","0.0094319","2"
"0.014048","0.029542","0.013344","0.0113","0.019668","0.040425","0.031516","0.011076","2"
"0.012149","0.031097","0.014003","0.011903","0.020888","0.042361","0.035874","0.013437","2"
"0.012662","0.02981","0.013121","0.010082","0.015562","0.034043","0.022539","0.0093954","2"
"0.014726","0.043796","0.014921","0.011606","0.019053","0.039302","0.022574","0.010256","2"
"0.011662","0.02812","0.013196","0.010067","0.013515","0.027077","0.022989","0.0094251","2"
"0.014025","0.0203","0.024633","0.011772","0.015013","0.028016","0.022034","0.0096767","2"
"0.012245","0.018214","0.011382","0.0099462","0.015671","0.030658","0.027516","0.009689","2"
"0.012542","0.015279","0.010626","0.010686","0.016099","0.035674","0.025138","0.0099741","2"
"0.011476","0.015688","0.010998","0.01045","0.017654","0.03453","0.028853","0.0088567","2"
"0.014732","0.047636","0.034331","0.015952","0.020899","0.051598","0.025602","0.011449","2"
"0.011602","0.043002","0.035715","0.016227","0.016044","0.035763","0.024141","0.0098217","2"
"0.014228","0.0523","0.038424","0.016682","0.019097","0.041891","0.029841","0.011097","2"
"0.016033","0.048598","0.033085","0.016719","0.016427","0.041514","0.027799","0.01139","2"
"0.0123","0.035038","0.033753","0.014792","0.016372","0.028859","0.02357","0.010096","2"
"0.015618","0.05015","0.038087","0.016687","0.019936","0.041746","0.034004","0.012718","2"
"0.014985","0.042763","0.044806","0.02149","0.019296","0.032283","0.026274","0.011107","2"
"0.01477","0.046241","0.042162","0.016839","0.016855","0.035544","0.024344","0.0094904","2"
"0.01281","0.039989","0.033497","0.017561","0.017613","0.035284","0.025878","0.0089575","2"
"0.015359","0.051049","0.042697","0.016302","0.018292","0.033024","0.026903","0.011293","2"
"0.014539","0.05178","0.041274","0.017473","0.0171","0.039062","0.027314","0.010389","2"
"0.014043","0.046262","0.035722","0.015655","0.015515","0.033708","0.025613","0.010137","2"
"0.012946","0.029473","0.039028","0.016087","0.016801","0.033166","0.02405","0.0091019","2"
"0.015451","0.041891","0.041327","0.016321","0.020062","0.036915","0.026115","0.010366","2"
"0.014623","0.046815","0.041168","0.018734","0.019592","0.039833","0.028138","0.010927","2"
"0.013658","0.046292","0.043534","0.01821","0.017578","0.045198","0.029102","0.010468","2"
"0.014258","0.047129","0.045735","0.01564","0.01566","0.02936","0.025231","0.0097379","2"
"0.011559","0.042987","0.051363","0.015531","0.013551","0.029427","0.026161","0.0094064","2"
"0.014526","0.049375","0.043547","0.016267","0.019182","0.037409","0.024091","0.0088493","2"
"0.012758","0.041264","0.030712","0.013233","0.012859","0.0285","0.024525","0.0098961","2"
"0.014755","0.053515","0.038298","0.015677","0.021666","0.049262","0.034103","0.010546","2"
"0.015274","0.060094","0.037476","0.015643","0.018365","0.037231","0.024289","0.011807","2"
"0.014361","0.048508","0.037948","0.018715","0.016688","0.040188","0.025012","0.010036","2"
"0.020167","0.065233","0.04317","0.020885","0.020386","0.043525","0.034955","0.012065","2"
"0.015944","0.07387","0.07196","0.017619","0.019886","0.03897","0.027331","0.011184","2"
"0.01577","0.052392","0.04379","0.018742","0.020911","0.041628","0.035371","0.010569","2"
"0.014399","0.04686","0.041304","0.017343","0.022452","0.047811","0.03136","0.010257","2"
"0.015308","0.049494","0.053921","0.016757","0.019839","0.032618","0.022666","0.010455","2"
"0.013748","0.042993","0.037426","0.018058","0.018236","0.035801","0.024712","0.010764","2"
"0.012489","0.02881","0.040361","0.017342","0.017062","0.035464","0.023499","0.011504","2"
"0.01511","0.053466","0.04495","0.015603","0.018815","0.03836","0.029501","0.010581","2"
"0.014034","0.046895","0.033919","0.013207","0.014445","0.031203","0.02135","0.0090549","2"
"0.012468","0.038552","0.033923","0.015929","0.015863","0.043119","0.024201","0.0095306","2"
"0.012702","0.054831","0.046763","0.016641","0.018315","0.037044","0.026874","0.0094793","2"
"0.013888","0.057082","0.043198","0.019859","0.017982","0.033197","0.036583","0.01133","2"
"0.013713","0.038871","0.039157","0.016926","0.017082","0.04146","0.027638","0.010337","2"
"0.014569","0.049844","0.035641","0.016003","0.018069","0.041558","0.031451","0.012723","2"
"0.014336","0.038123","0.032749","0.013521","0.022685","0.044974","0.032066","0.010821","2"
"0.012022","0.043352","0.021713","0.011506","0.017009","0.040791","0.025192","0.0093372","2"
"0.012314","0.044283","0.037191","0.017459","0.019399","0.039796","0.02947","0.010835","2"
"0.012874","0.059955","0.04587","0.017945","0.01707","0.039748","0.025858","0.011","2"
"0.016527","0.064821","0.043772","0.019644","0.02311","0.050867","0.02782","0.0117","2"
"0.015639","0.056783","0.035505","0.017529","0.016731","0.041774","0.027007","0.011597","2"
"0.011923","0.047853","0.038834","0.015211","0.018065","0.031375","0.031908","0.010589","2"
"0.012251","0.03926","0.038658","0.016347","0.020165","0.044853","0.03119","0.010054","2"
"0.013897","0.051099","0.03772","0.015191","0.024114","0.054296","0.032531","0.010751","2"
"0.011027","0.023969","0.027247","0.011418","0.015785","0.03416","0.023341","0.0099723","2"
"0.012987","0.051839","0.036316","0.020634","0.025523","0.046453","0.029092","0.0092248","2"
"0.014436","0.046297","0.042317","0.019656","0.02201","0.052293","0.033676","0.012342","2"
"0.015322","0.048083","0.039862","0.016773","0.020271","0.048132","0.034598","0.010597","2"
"0.013425","0.047224","0.045571","0.018052","0.016888","0.044101","0.029134","0.010787","2"
"0.013709","0.045015","0.036788","0.013887","0.014401","0.036186","0.031154","0.010623","2"
"0.013729","0.04929","0.037622","0.019081","0.025862","0.066727","0.04243","0.011296","2"
"0.015618","0.054392","0.045275","0.019457","0.021427","0.052872","0.034043","0.01106","2"
"0.015445","0.041077","0.045995","0.01916","0.01962","0.042795","0.026437","0.011133","2"
"0.01525","0.059812","0.040903","0.020579","0.02124","0.037084","0.033514","0.012869","2"
"0.014196","0.046501","0.049098","0.02354","0.022133","0.050545","0.027722","0.011781","2"
"0.018859","0.067354","0.041912","0.020108","0.023424","0.053957","0.038031","0.013385","2"
"0.016581","0.063669","0.065444","0.022675","0.017144","0.033965","0.02614","0.010924","2"
"0.026251","0.08349","0.066842","0.030086","0.020075","0.042449","0.036085","0.01148","2"
"0.013474","0.062347","0.068594","0.022052","0.016311","0.030274","0.024068","0.0084224","2"
"0.021434","0.059546","0.059549","0.025702","0.015768","0.038388","0.021852","0.012296","2"
"0.0158","0.046212","0.049355","0.022785","0.020329","0.041239","0.030743","0.011905","2"
"0.016514","0.048898","0.065564","0.020614","0.015518","0.030168","0.030356","0.0104","2"
"0.014547","0.04931","0.046149","0.020539","0.014954","0.031388","0.0285","0.0099229","2"
"0.01555","0.06575","0.045524","0.023541","0.015909","0.028597","0.028997","0.014442","2"
"0.015485","0.066814","0.045065","0.017769","0.017353","0.039971","0.032318","0.010367","2"
"0.010561","0.011428","0.035124","0.01535","0.010494","0.0098695","0.0078387","0.0077292","2"
"0.02749","0.052528","0.020217","0.016472","0.042956","0.074546","0.017565","0.038339","2"
"0.017782","0.05718","0.015685","0.014491","0.030609","0.064437","0.022732","0.020395","2"
"0.019572","0.057656","0.017353","0.016015","0.055435","0.059415","0.02734","0.020691","2"
"0.017058","0.049164","0.016208","0.014507","0.03364","0.077299","0.021346","0.01598","2"
"0.02056","0.05992","0.016853","0.013303","0.040778","0.070565","0.0246","0.022678","2"
"0.013202","0.022292","0.013158","0.011787","0.025439","0.061899","0.011675","0.010116","2"
"0.018853","0.068523","0.018891","0.015318","0.024808","0.057594","0.015478","0.014309","2"
"0.014854","0.039439","0.017186","0.010571","0.021603","0.063463","0.015451","0.011173","2"
"0.023182","0.086442","0.022459","0.015139","0.032705","0.068723","0.029405","0.025177","2"
"0.01766","0.048502","0.015676","0.013316","0.02371","0.062981","0.013107","0.011822","2"
"0.01938","0.061906","0.016828","0.013085","0.027028","0.048987","0.015789","0.015072","2"
"0.023504","0.10082","0.03032","0.017525","0.034322","0.053524","0.022695","0.017338","2"
"0.017442","0.042136","0.019536","0.010621","0.017999","0.048751","0.016892","0.015214","2"
"0.022449","0.10526","0.02566","0.014893","0.034814","0.086024","0.023201","0.015749","2"
"0.015354","0.048391","0.017027","0.01578","0.045209","0.12469","0.020638","0.018134","2"
"0.015425","0.055457","0.017775","0.011786","0.023723","0.064147","0.013635","0.012532","2"
"0.01731","0.041312","0.018354","0.010786","0.026499","0.082263","0.01944","0.016268","2"
"0.016871","0.068058","0.020262","0.012397","0.029492","0.055333","0.018186","0.01553","2"
"0.015169","0.042672","0.01899","0.010977","0.021103","0.05915","0.014013","0.017394","2"
"0.020582","0.056047","0.023495","0.014129","0.024812","0.051754","0.022744","0.021413","2"
"0.023598","0.1109","0.02665","0.015889","0.031304","0.072165","0.023386","0.020567","2"
"0.020725","0.12016","0.023967","0.015117","0.041136","0.084168","0.025447","0.025454","2"
"0.027145","0.13284","0.032699","0.016846","0.029023","0.059533","0.02216","0.019002","2"
"0.021072","0.10672","0.02481","0.014593","0.037447","0.086855","0.022221","0.01956","2"
"0.028857","0.14032","0.048297","0.015581","0.037245","0.077475","0.017522","0.018865","2"
"0.019138","0.089925","0.023974","0.014312","0.030992","0.068522","0.020057","0.016765","2"
"0.021292","0.075391","0.035727","0.018202","0.052374","0.076722","0.021322","0.020929","2"
"0.0157","0.052231","0.022604","0.011664","0.023391","0.054906","0.015562","0.013269","2"
"0.021542","0.087737","0.05498","0.014357","0.028506","0.075923","0.036111","0.021255","2"
"0.021493","0.08694","0.042191","0.014535","0.029992","0.073732","0.020996","0.017157","2"
"0.01652","0.043914","0.022331","0.012027","0.027104","0.05873","0.013476","0.015432","2"
"0.013605","0.026721","0.02166","0.0095425","0.014147","0.03536","0.012489","0.01087","2"
"0.015322","0.085151","0.026911","0.01132","0.015456","0.0454","0.012718","0.0094099","2"
"0.01587","0.071837","0.033396","0.01196","0.02293","0.060872","0.016584","0.013877","2"
"0.012972","0.04601","0.023925","0.01128","0.019947","0.035531","0.018015","0.011518","2"
"0.01657","0.083577","0.040657","0.013107","0.022806","0.082549","0.040574","0.015659","2"
"0.016634","0.069849","0.036779","0.012247","0.024678","0.082068","0.029814","0.014848","2"
"0.021147","0.065462","0.030818","0.01929","0.056453","0.14406","0.042178","0.05811","2"
"0.019963","0.073043","0.021747","0.015092","0.039302","0.074915","0.024221","0.025343","2"
"0.015352","0.045458","0.024958","0.015495","0.036935","0.080942","0.036636","0.04905","2"
"0.022112","0.077663","0.027032","0.015533","0.042304","0.091609","0.034304","0.022822","2"
"0.019188","0.047762","0.015755","0.015434","0.056465","0.13332","0.023586","0.035417","2"
"0.015149","0.057721","0.02412","0.013303","0.035441","0.064366","0.020946","0.015688","2"
"0.018347","0.037647","0.021736","0.012531","0.03013","0.091579","0.042671","0.028062","2"
"0.016196","0.064525","0.016531","0.014963","0.036058","0.10733","0.024161","0.020599","2"
"0.016427","0.051514","0.022015","0.013834","0.035877","0.058027","0.021604","0.018897","2"
"0.017535","0.044411","0.020876","0.012888","0.025305","0.054834","0.014597","0.014662","2"
"0.017368","0.052969","0.018604","0.011998","0.027364","0.10692","0.045656","0.01818","2"
"0.021307","0.064944","0.020063","0.016494","0.047747","0.061305","0.04799","0.029284","2"
"0.016773","0.038441","0.013398","0.011756","0.02395","0.06351","0.021072","0.017758","2"
"0.015247","0.03693","0.013381","0.012543","0.029758","0.10654","0.030729","0.023938","2"
"0.015304","0.075874","0.01513","0.013975","0.043868","0.06219","0.057862","0.057469","2"
"0.021394","0.089144","0.020872","0.012231","0.030486","0.070091","0.017565","0.01557","2"
"0.020522","0.072836","0.035551","0.020784","0.039487","0.049491","0.026233","0.020085","2"
"0.016503","0.076262","0.021359","0.012797","0.025385","0.071861","0.013719","0.017638","2"
"0.021368","0.10853","0.024774","0.013903","0.031669","0.068316","0.020576","0.024117","2"
"0.02257","0.10786","0.038779","0.016083","0.040655","0.091587","0.021726","0.018857","2"
"0.022796","0.1101","0.026094","0.014875","0.036111","0.090384","0.031007","0.022289","2"
"0.022195","0.095893","0.020702","0.017174","0.038347","0.11427","0.035895","0.021723","2"
"0.021744","0.12555","0.025291","0.013324","0.023339","0.055532","0.018455","0.02516","2"
"0.020315","0.088561","0.0174","0.012301","0.027789","0.079826","0.023477","0.036054","2"
"0.017308","0.075844","0.015936","0.01185","0.024446","0.066345","0.025205","0.016773","2"
"0.023581","0.11958","0.022983","0.017225","0.049393","0.11961","0.032018","0.026262","2"
"0.020931","0.077618","0.017397","0.014417","0.03352","0.10768","0.021651","0.021987","2"
"0.019561","0.074125","0.018658","0.011958","0.035949","0.092563","0.024008","0.020247","2"
"0.02552","0.096691","0.025965","0.018548","0.050531","0.12659","0.032249","0.026378","2"
"0.022243","0.08632","0.022347","0.01636","0.041654","0.13116","0.028254","0.025887","2"
"0.015688","0.082637","0.01559","0.012707","0.025098","0.065303","0.013646","0.014838","2"
"0.016158","0.0672","0.013745","0.012501","0.035428","0.052531","0.020508","0.016789","2"
"0.015242","0.076718","0.022331","0.012976","0.031123","0.058124","0.019074","0.015817","2"
"0.012468","0.065269","0.016981","0.011837","0.024674","0.044712","0.014089","0.010267","2"
"0.018236","0.066818","0.015857","0.012296","0.038775","0.084088","0.024645","0.020358","2"
"0.013587","0.072283","0.015284","0.0099291","0.027545","0.085116","0.025489","0.013258","2"
"0.014004","0.069221","0.016827","0.01146","0.024377","0.046954","0.026001","0.012584","2"
"0.016613","0.059444","0.013921","0.012832","0.027818","0.07567","0.018028","0.026399","2"
"0.016425","0.075078","0.016073","0.01186","0.023882","0.060918","0.012132","0.01476","2"
"0.015398","0.074647","0.017541","0.014198","0.036587","0.072052","0.018353","0.012236","2"
"0.017354","0.10036","0.028067","0.015057","0.031666","0.063456","0.016724","0.0151","2"
"0.025804","0.11387","0.029743","0.016259","0.049892","0.098837","0.025982","0.027757","2"
"0.017177","0.074634","0.021608","0.013916","0.031691","0.078173","0.017047","0.016673","2"
"0.01573","0.061276","0.013687","0.013243","0.035074","0.083925","0.020003","0.019663","2"
"0.017882","0.062362","0.016158","0.016739","0.048483","0.07218","0.027805","0.024903","2"
"0.01503","0.047903","0.013453","0.014385","0.033651","0.064444","0.01756","0.016748","2"
"0.014352","0.027175","0.012384","0.011014","0.017642","0.08587","0.02705","0.020207","2"
"0.013868","0.04747","0.026226","0.01402","0.027351","0.082007","0.039907","0.021594","2"
"0.019873","0.075496","0.034516","0.011388","0.025613","0.060483","0.019245","0.01482","2"
"0.014774","0.099102","0.020497","0.010506","0.024608","0.070921","0.016497","0.019181","2"
"0.021748","0.082208","0.027657","0.013895","0.024555","0.084407","0.022869","0.019454","2"
"0.018949","0.066965","0.023368","0.01391","0.034451","0.075324","0.017044","0.016838","2"
"0.014541","0.073356","0.018478","0.015169","0.032729","0.077717","0.019151","0.014402","2"
"0.019735","0.077699","0.017814","0.014437","0.03948","0.10795","0.02107","0.019878","2"
"0.014921","0.061116","0.018829","0.012782","0.020323","0.093196","0.021164","0.012086","2"
"0.030536","0.10503","0.027321","0.012854","0.032109","0.1138","0.021089","0.020792","2"
"0.01716","0.092657","0.01775","0.01292","0.03021","0.084105","0.02272","0.018614","2"
"0.018706","0.075065","0.015604","0.012629","0.026461","0.071664","0.030297","0.04917","2"
"0.026188","0.096661","0.033036","0.019404","0.057063","0.084847","0.046575","0.020901","2"
"0.021787","0.097945","0.020181","0.015548","0.041757","0.060661","0.021781","0.022163","2"
"0.018696","0.072988","0.017809","0.013549","0.048329","0.090305","0.018632","0.016926","2"
"0.018946","0.10402","0.034409","0.018746","0.027409","0.0601","0.019844","0.018657","2"
"0.019935","0.083881","0.017778","0.014974","0.034358","0.10514","0.023766","0.020301","2"
"0.01148","0.018729","0.047764","0.027456","0.014228","0.013455","0.0082653","0.014034","2"
"0.023709","0.079666","0.079062","0.0186","0.025233","0.057284","0.033641","0.024882","2"
"0.022405","0.089189","0.03442","0.017996","0.029889","0.0671","0.027972","0.01698","2"
"0.017966","0.058841","0.052329","0.015779","0.023092","0.047601","0.028392","0.016736","2"
"0.013679","0.055122","0.055259","0.015675","0.020722","0.035116","0.020185","0.0153","2"
"0.012565","0.049067","0.034502","0.019179","0.018715","0.034196","0.021375","0.016272","2"
"0.013191","0.042052","0.044684","0.019108","0.017116","0.028435","0.027169","0.014603","2"
"0.0151","0.060955","0.039972","0.017319","0.01901","0.038886","0.024366","0.028389","2"
"0.013534","0.049824","0.051099","0.017845","0.022207","0.072272","0.028167","0.014939","2"
"0.014015","0.053017","0.038337","0.018027","0.017438","0.034613","0.020851","0.015509","2"
